I [mA]	0.100000
H [kOe]	20.095000
Time [s]	V_xx [mV]	V_xy [mV]
0.00000	1145.49000	-1.79100
0.26302	1143.57000	-1.79000
0.54203	1143.11000	-1.79000
0.82205	1142.58000	-1.79000
1.31508	1146.84000	-1.79000
1.59109	1146.28000	-1.79300
1.86211	1146.46000	-1.79100
2.14212	1147.57000	-1.78900
2.42214	1146.81000	-1.79300
2.70215	1146.55000	-1.78900
2.98217	1146.95000	-1.79000
3.26219	1147.53000	-1.78800
3.54120	1147.91000	-1.79000
3.81322	1146.59000	-1.78900
4.08123	1146.38000	-1.79000
4.35325	1145.42000	-1.78600
4.62226	1146.09000	-1.78700
4.90128	1146.37000	-1.78600
5.18130	1146.83000	-1.78900
5.46231	1147.33000	-1.78700
5.73933	1146.98000	-1.78500
6.01334	1147.83000	-1.79000
6.28136	1145.47000	-1.78600
6.56138	1145.90000	-1.78400
6.84139	1147.10000	-1.78500
7.12141	1146.47000	-1.78300
7.39942	1146.61000	-1.78100
7.67344	1145.89000	-1.78200
7.94145	1146.06000	-1.78300
8.22147	1146.16000	-1.78300
8.49949	1146.08000	-1.78200
8.77150	1145.27000	-1.77600
9.03952	1145.56000	-1.77700
9.31353	1144.89000	-1.77900
9.57955	1145.32000	-1.77600
9.85356	1144.62000	-1.77300
10.12158	1144.88000	-1.77400
10.39960	1145.06000	-1.77100
10.67161	1144.19000	-1.77200
10.94163	1144.58000	-1.76700
11.21964	1144.63000	-1.77100
11.49166	1143.72000	-1.76600
11.75967	1144.01000	-1.76700
12.03169	1143.31000	-1.76600
12.29970	1143.70000	-1.76600
12.57172	1144.20000	-1.76300
12.83973	1144.09000	-1.76100
13.11175	1143.88000	-1.75900
13.37977	1145.39000	-1.76100
13.65078	1143.63000	-1.75500
13.91980	1143.05000	-1.75300
14.19081	1141.81000	-1.75400
14.45983	1141.83000	-1.75200
14.73084	1141.20000	-1.75200
14.99986	1141.57000	-1.74600
15.27087	1140.50000	-1.74500
15.53989	1141.03000	-1.74600
15.81090	1140.61000	-1.74300
16.07992	1141.05000	-1.74000
16.35094	1140.67000	-1.73800
16.61995	1141.08000	-1.73900
16.89097	1140.39000	-1.73400
17.15998	1140.96000	-1.73300
17.43300	1140.31000	-1.72900
17.69901	1140.67000	-1.72800
17.97103	1140.17000	-1.73000
18.24204	1140.58000	-1.72700
18.52006	1140.84000	-1.72600
18.79108	1140.17000	-1.72400
19.05909	1140.47000	-1.72000
19.33111	1140.10000	-1.71700
19.60112	1140.35000	-1.71600
19.87914	1140.48000	-1.71500
20.15115	1139.83000	-1.71000
20.42117	1140.17000	-1.71100
20.69918	1140.27000	-1.70800
20.97120	1139.46000	-1.70500
21.24022	1139.90000	-1.70200
21.51123	1139.66000	-1.69900
21.77925	1140.30000	-1.69800
22.05126	1140.29000	-1.69700
22.31928	1140.86000	-1.69500
22.59129	1140.65000	-1.69200
22.85931	1141.04000	-1.68600
23.13132	1140.76000	-1.68600
23.40134	1141.38000	-1.68100
23.68135	1141.80000	-1.67900
23.96137	1142.30000	-1.67800
24.23939	1142.51000	-1.67700
24.51340	1141.90000	-1.67400
24.77942	1142.37000	-1.67100
25.05343	1142.26000	-1.66600
25.32145	1142.71000	-1.66500
25.59946	1143.31000	-1.66400
25.87148	1142.84000	-1.66000
26.13950	1143.38000	-1.65800
26.41151	1143.45000	-1.65600
26.67953	1144.12000	-1.65000
26.95154	1143.83000	-1.64900
27.21956	1144.33000	-1.64600
27.49057	1144.18000	-1.64000
27.75959	1144.83000	-1.64100
28.03160	1144.61000	-1.63700
28.29962	1145.14000	-1.63200
28.57263	1145.11000	-1.63100
28.83965	1145.86000	-1.62700
29.11167	1145.69000	-1.62500
29.37968	1146.15000	-1.62200
29.65170	1146.02000	-1.62000
29.91971	1146.52000	-1.61500
30.19173	1146.21000	-1.61300
30.45974	1146.48000	-1.61100
30.73176	1145.93000	-1.60500
30.99877	1146.32000	-1.60700
31.27279	1145.58000	-1.60100
31.53980	1145.96000	-1.60100
31.81082	1145.46000	-1.59400
32.07884	1145.73000	-1.59100
32.35085	1145.28000	-1.59100
32.61887	1145.78000	-1.58700
32.89088	1145.24000	-1.58600
33.15890	1145.55000	-1.58300
33.43291	1145.05000	-1.57800
33.69893	1145.37000	-1.57500
33.97094	1144.69000	-1.57500
34.23896	1145.12000	-1.57000
34.51097	1144.36000	-1.56700
34.78099	1144.80000	-1.56400
35.06101	1145.03000	-1.56000
35.33902	1145.09000	-1.55300
35.61204	1144.29000	-1.55000
35.88105	1144.38000	-1.54900
36.15907	1144.35000	-1.54700
36.43208	1143.64000	-1.54400
36.69910	1143.86000	-1.53800
36.97112	1143.09000	-1.53600
37.24113	1143.24000	-1.53500
37.52115	1143.39000	-1.52900
37.79916	1143.38000	-1.52600
38.07218	1142.64000	-1.52400
38.33919	1142.92000	-1.51700
38.61221	1142.35000	-1.51700
38.87922	1142.51000	-1.51700
39.15224	1141.86000	-1.51000
39.41925	1142.06000	-1.50700
39.69227	1141.18000	-1.50300
39.95929	1141.44000	-1.49800
40.23230	1140.59000	-1.49600
40.49932	1140.83000	-1.49600
40.77233	1140.25000	-1.49100
41.04135	1140.72000	-1.48800
41.32136	1140.81000	-1.48200
41.59938	1141.02000	-1.48100
41.87240	1140.42000	-1.47500
42.13941	1140.61000	-1.47400
42.41243	1140.01000	-1.46800
42.67944	1140.47000	-1.46400
42.95246	1140.11000	-1.46100
43.21947	1140.60000	-1.46200
43.49249	1140.43000	-1.45500
43.75950	1140.76000	-1.45200
44.03252	1140.13000	-1.44700
44.30153	1140.49000	-1.44400
44.57955	1140.63000	-1.44100
44.85257	1140.01000	-1.43600
45.12158	1140.36000	-1.43300
45.39960	1140.71000	-1.43200
45.67261	1140.14000	-1.43000
45.93963	1140.45000	-1.42200
46.21264	1139.96000	-1.42200
46.47866	1140.48000	-1.41500
46.75267	1139.86000	-1.41200
47.02169	1140.31000	-1.41200
47.29871	1140.57000	-1.40600
47.57272	1140.04000	-1.40500
47.84174	1140.57000	-1.39900
48.12075	1140.98000	-1.39400
48.39877	1141.29000	-1.39100
48.67278	1140.94000	-1.38600
48.93880	1141.37000	-1.38500
49.21282	1140.76000	-1.38100
49.47883	1141.11000	-1.38000
49.75285	1140.57000	-1.37400
50.01886	1140.86000	-1.37100
50.29288	1140.43000	-1.36700
50.55889	1140.86000	-1.36600
50.83291	1140.60000	-1.36200
51.09892	1141.14000	-1.35900
51.37094	1140.67000	-1.35200
51.64095	1141.03000	-1.34700
51.91897	1141.46000	-1.34400
52.19199	1140.96000	-1.34300
52.45900	1141.44000	-1.34200
52.73202	1141.11000	-1.33700
52.99903	1141.62000	-1.33000
53.27205	1141.63000	-1.32400
53.53906	1142.26000	-1.32200
53.81108	1142.10000	-1.32200
54.07909	1142.58000	-1.31800
54.35211	1142.48000	-1.31000
54.62112	1142.98000	-1.31300
54.89914	1143.24000	-1.30400
55.17216	1143.00000	-1.30200
55.43917	1143.48000	-1.29900
55.71219	1143.23000	-1.29700
55.97920	1143.68000	-1.29000
56.25222	1143.30000	-1.29100
56.52123	1143.77000	-1.28700
56.79925	1143.94000	-1.28200
57.07327	1143.48000	-1.27800
57.34128	1143.91000	-1.27300
57.61930	1144.16000	-1.27200
57.89231	1143.79000	-1.26200
58.16133	1144.18000	-1.26300
58.43934	1144.50000	-1.25400
58.71036	1144.15000	-1.25200
58.98137	1144.61000	-1.25000
59.25939	1145.01000	-1.24300
59.53041	1144.59000	-1.24500
59.80142	1145.25000	-1.23600
60.08144	1145.65000	-1.23300
60.36145	1145.84000	-1.22700
60.63847	1145.82000	-1.22700
60.91248	1145.39000	-1.22400
61.18150	1145.79000	-1.21900
61.45852	1146.04000	-1.21600
61.73253	1145.65000	-1.21300
61.99855	1146.21000	-1.21200
62.27256	1145.75000	-1.20600
62.53858	1145.96000	-1.20100
62.81259	1145.18000	-1.20000
63.07861	1145.50000	-1.19500
63.35162	1144.81000	-1.19100
63.62064	1145.51000	-1.18700
63.89866	1145.89000	-1.18400
64.17267	1145.57000	-1.18200
64.43869	1146.25000	-1.17800
64.71070	1145.87000	-1.17300
64.97872	1146.34000	-1.16600
65.25073	1145.89000	-1.16500
65.51875	1146.25000	-1.16300
65.79076	1145.83000	-1.15600
66.05878	1146.27000	-1.15200
66.33179	1145.80000	-1.15200
66.59881	1146.21000	-1.14600
66.87082	1145.87000	-1.14200
67.13884	1146.37000	-1.13600
67.41086	1145.72000	-1.13600
67.67887	1146.03000	-1.13100
67.95089	1145.31000	-1.12800
68.21890	1145.69000	-1.12700
68.49092	1144.95000	-1.12200
68.75893	1145.15000	-1.11400
69.03095	1144.61000	-1.11000
69.29896	1144.97000	-1.11000
69.57098	1144.35000	-1.10700
69.83899	1144.80000	-1.10100
70.11101	1144.31000	-1.09500
70.37903	1144.55000	-1.09600
70.65204	1143.83000	-1.09100
70.91906	1144.08000	-1.08400
71.19207	1143.61000	-1.08000
71.45909	1143.81000	-1.08200
71.73210	1143.01000	-1.07800
71.99912	1143.33000	-1.07000
72.27213	1142.49000	-1.06800
72.53915	1142.60000	-1.06300
72.81216	1141.80000	-1.06100
73.07918	1142.11000	-1.05800
73.35020	1141.51000	-1.05200
73.61921	1141.86000	-1.04700
73.89223	1141.41000	-1.04600
74.15924	1141.75000	-1.04500
74.43026	1141.07000	-1.04000
74.69927	1141.29000	-1.03300
74.97229	1140.58000	-1.03300
75.23930	1140.85000	-1.02900
75.51232	1139.98000	-1.02300
75.77833	1140.30000	-1.01900
76.05035	1139.41000	-1.01500
76.32137	1139.91000	-1.01100
76.60138	1140.13000	-1.01000
76.87840	1140.31000	-1.00200
77.15241	1139.82000	-1.00200
77.41843	1140.24000	-0.99700
77.69244	1139.69000	-0.99400
77.95846	1139.98000	-0.99100
78.23248	1139.36000	-0.98600
78.49849	1139.80000	-0.98100
78.77251	1139.17000	-0.98000
79.03852	1139.84000	-0.97300
79.31254	1139.75000	-0.97100
79.58055	1140.30000	-0.96800
79.86057	1140.59000	-0.96800
80.13858	1140.92000	-0.96000
80.41260	1140.56000	-0.95600
80.67861	1141.07000	-0.95300
80.95263	1140.97000	-0.95000
81.21865	1141.50000	-0.94700
81.49066	1141.48000	-0.94000
81.75868	1142.08000	-0.93800
82.03169	1141.99000	-0.93200
82.29871	1142.42000	-0.92700
82.57072	1142.11000	-0.92600
82.83874	1142.61000	-0.92100
83.11175	1142.33000	-0.91900
83.37877	1142.85000	-0.91200
83.65178	1142.73000	-0.91000
83.91880	1143.07000	-0.90800
84.19082	1142.97000	-0.90200
84.45883	1143.38000	-0.89800
84.73085	1143.10000	-0.89700
84.99886	1143.48000	-0.89300
85.27188	1143.14000	-0.88800
85.53889	1143.54000	-0.88700
85.81191	1143.33000	-0.87900
86.07892	1143.62000	-0.87800
86.35094	1143.39000	-0.87500
86.61895	1143.75000	-0.87100
86.89197	1143.56000	-0.86500
87.15899	1144.04000	-0.86300
87.43000	1143.76000	-0.85800
87.69902	1144.13000	-0.85300
87.97003	1143.91000	-0.85200
88.23905	1144.34000	-0.84800
88.51006	1143.88000	-0.84400
88.77908	1144.33000	-0.83700
89.05009	1144.09000	-0.83700
89.31811	1144.49000	-0.83100
89.59013	1144.23000	-0.82900
89.85814	1144.55000	-0.82500
90.13016	1144.33000	-0.82200
90.39817	1144.74000	-0.81900
90.67019	1144.66000	-0.81300
90.93820	1145.11000	-0.80600
91.20922	1144.78000	-0.80600
91.47823	1145.18000	-0.80100
91.75025	1145.06000	-0.79700
92.01826	1145.39000	-0.79600
92.29028	1145.01000	-0.78900
92.55829	1145.28000	-0.78700
92.83031	1144.90000	-0.78300
93.09832	1145.43000	-0.77900
93.37034	1145.25000	-0.77400
93.63836	1145.57000	-0.77300
93.91037	1145.15000	-0.76900
94.17839	1145.63000	-0.76200
94.45040	1145.29000	-0.76100
94.71842	1145.77000	-0.75600
94.99043	1145.74000	-0.75300
95.25845	1146.18000	-0.74900
95.53046	1145.68000	-0.74700
95.79848	1146.00000	-0.74000
96.07050	1145.52000	-0.73800
96.33851	1145.99000	-0.73500
96.61053	1145.69000	-0.73100
96.87854	1146.35000	-0.72600
97.15056	1145.97000	-0.72000
97.41857	1146.49000	-0.71800
97.69059	1146.28000	-0.71400
97.95860	1146.64000	-0.71200
98.23062	1146.23000	-0.71000
98.49863	1146.53000	-0.70300
98.77065	1145.96000	-0.70200
99.03866	1146.22000	-0.69600
99.31068	1145.58000	-0.69300
99.57870	1146.04000	-0.69000
99.85071	1145.50000	-0.68200
100.11873	1145.81000	-0.68000
100.39074	1144.92000	-0.67600
100.65876	1145.16000	-0.67600
100.93077	1144.59000	-0.66700
101.19879	1145.06000	-0.66600
101.47080	1144.62000	-0.66200
101.73882	1145.14000	-0.65800
102.01084	1144.63000	-0.65700
102.27885	1145.08000	-0.64800
102.55087	1144.41000	-0.64600
102.81888	1144.84000	-0.64400
103.08990	1144.57000	-0.64100
103.35891	1145.08000	-0.63600
103.62993	1144.37000	-0.63100
103.89894	1144.61000	-0.62900
104.16996	1144.00000	-0.62800
104.43797	1145.61000	-0.62400
104.70999	1145.38000	-0.62000
104.97800	1144.70000	-0.61200
105.25002	1143.06000	-0.61000
105.51804	1143.10000	-0.60900
105.79005	1142.41000	-0.60400
106.05807	1142.74000	-0.59800
106.33008	1142.09000	-0.59800
106.59810	1142.72000	-0.59400
106.87011	1142.27000	-0.58600
107.13813	1142.81000	-0.58300
107.41014	1142.22000	-0.57800
107.67816	1142.61000	-0.57500
107.95017	1141.96000	-0.57300
108.21819	1142.40000	-0.56800
108.49021	1141.81000	-0.56400
108.75822	1142.45000	-0.55900
109.03024	1141.71000	-0.55700
109.29825	1142.29000	-0.55300
109.57027	1141.76000	-0.55100
109.83828	1142.29000	-0.54600
110.11030	1142.04000	-0.54400
110.37831	1142.44000	-0.53800
110.65033	1141.92000	-0.53300
110.91834	1142.46000	-0.53200
111.19036	1142.16000	-0.52700
111.45838	1142.46000	-0.52300
111.73039	1141.93000	-0.51900
111.99841	1142.28000	-0.51500
112.27042	1141.73000	-0.51000
112.53844	1142.19000	-0.50800
112.81045	1141.43000	-0.50300
113.07847	1141.93000	-0.50000
113.35048	1141.33000	-0.49500
113.61850	1141.60000	-0.49200
113.89051	1141.10000	-0.49000
114.15853	1141.77000	-0.48500
114.43055	1141.35000	-0.48300
114.69856	1141.85000	-0.48000
114.97058	1141.35000	-0.47500
115.23759	1142.03000	-0.46900
115.51061	1142.16000	-0.46500
115.77862	1142.58000	-0.46700
116.05064	1141.66000	-0.46100
116.31865	1141.86000	-0.45600
116.59067	1141.37000	-0.45500
116.85868	1141.88000	-0.44600
117.13070	1141.32000	-0.44600
117.39872	1141.83000	-0.44000
117.67073	1141.34000	-0.43800
117.93875	1141.74000	-0.43300
118.20976	1141.44000	-0.42700
118.47778	1141.68000	-0.42600
118.74979	1141.07000	-0.42200
119.01781	1141.59000	-0.41900
119.29082	1141.03000	-0.41000
119.55784	1141.47000	-0.40800
119.83085	1140.86000	-0.40600
120.09787	1141.44000	-0.40000
120.37188	1141.12000	-0.40100
120.63790	1141.61000	-0.39300
120.90992	1141.07000	-0.39000
121.17793	1141.28000	-0.38900
121.44995	1140.60000	-0.38800
121.71796	1141.02000	-0.38100
121.98998	1140.72000	-0.37700
122.25799	1141.08000	-0.37000
122.53001	1140.69000	-0.36800
122.79802	1141.25000	-0.36800
123.07004	1140.62000	-0.36400
123.33805	1140.93000	-0.35700
123.61007	1140.50000	-0.35600
123.87809	1140.79000	-0.34800
124.15010	1140.04000	-0.34500
124.41812	1140.50000	-0.34200
124.69113	1140.21000	-0.34100
124.95815	1140.64000	-0.33400
125.23016	1140.26000	-0.32900
125.49918	1140.58000	-0.32700
125.77219	1140.20000	-0.32200
126.03821	1140.66000	-0.32100
126.31023	1140.41000	-0.31900
126.57824	1140.93000	-0.31300
126.85026	1140.74000	-0.30600
127.11827	1140.87000	-0.30600
127.39029	1140.16000	-0.30100
127.65830	1140.42000	-0.29700
127.93032	1139.82000	-0.29300
128.19833	1140.31000	-0.28900
128.47035	1140.04000	-0.28400
128.73936	1140.48000	-0.28100
129.01038	1139.96000	-0.27600
129.27839	1140.61000	-0.27200
129.55041	1140.23000	-0.27000
129.81843	1140.78000	-0.26500
130.09044	1140.56000	-0.26400
130.35846	1141.11000	-0.25700
130.63147	1140.59000	-0.25400
130.89849	1140.93000	-0.25300
131.16950	1140.47000	-0.24600
131.43852	1140.81000	-0.24700
131.70953	1140.39000	-0.24300
131.97855	1140.89000	-0.23700
132.25057	1140.39000	-0.23400
132.51758	1140.91000	-0.22900
132.78960	1140.68000	-0.22900
133.05961	1141.36000	-0.22300
133.33763	1141.82000	-0.21600
133.61064	1141.56000	-0.21700
133.87766	1141.94000	-0.20900
134.14967	1141.53000	-0.21000
134.41769	1141.86000	-0.20100
134.69070	1141.35000	-0.19900
134.95772	1141.87000	-0.19700
135.23174	1141.43000	-0.19200
135.49775	1141.86000	-0.19100
135.76977	1141.24000	-0.18700
136.03778	1141.79000	-0.18300
136.30980	1141.60000	-0.18000
136.57781	1142.22000	-0.17200
136.85083	1141.82000	-0.16800
137.11784	1142.26000	-0.16500
137.39186	1142.09000	-0.16200
137.65787	1142.67000	-0.15700
137.92989	1142.49000	-0.15400
138.19990	1143.08000	-0.15100
138.47992	1143.47000	-0.14700
138.75794	1143.82000	-0.14200
139.03095	1143.33000	-0.13800
139.29797	1143.75000	-0.13500
139.57198	1143.31000	-0.13400
139.83800	1143.60000	-0.12800
140.11101	1143.35000	-0.12500
140.37903	1143.73000	-0.12100
140.65104	1143.49000	-0.11500
140.91806	1143.79000	-0.11000
141.19008	1143.31000	-0.10900
141.45809	1143.77000	-0.10700
141.73011	1143.54000	-0.10100
141.99812	1144.02000	-0.09900
142.27014	1143.54000	-0.09300
142.53815	1143.99000	-0.09100
142.81017	1143.65000	-0.08400
143.07818	1144.13000	-0.08300
143.34920	1143.75000	-0.07600
143.61621	1144.28000	-0.07100
143.89023	1143.76000	-0.07000
144.15825	1144.32000	-0.06800
144.42926	1144.06000	-0.06800
144.69828	1144.45000	-0.05600
144.97029	1144.07000	-0.05800
145.23831	1144.53000	-0.05500
145.51032	1144.17000	-0.05000
145.77834	1144.45000	-0.04500
146.04935	1144.02000	-0.04500
146.31837	1144.39000	-0.03500
146.58939	1144.18000	-0.03400
146.85840	1144.89000	-0.02900
147.13042	1144.76000	-0.02600
147.39743	1145.07000	-0.02100
147.67045	1145.04000	-0.01700
147.93746	1145.57000	-0.01700
148.21048	1145.56000	-0.01400
148.47749	1146.20000	-0.00500
148.74951	1146.00000	-0.00100
149.01752	1146.41000	0.00100
149.28954	1145.89000	0.00600
149.55955	1146.18000	0.00600
149.83757	1146.45000	0.01500
150.10959	1146.14000	0.01200
150.37760	1146.38000	0.02100
150.64962	1145.66000	0.02500
150.91763	1145.77000	0.02700
151.18965	1145.20000	0.03100
151.45766	1145.61000	0.03600
151.73068	1145.32000	0.03800
151.99769	1145.65000	0.04000
152.27171	1145.25000	0.04500
152.53772	1145.75000	0.04800
152.81074	1145.74000	0.05500
153.07976	1146.22000	0.05500
153.35777	1146.66000	0.06000
153.63079	1146.12000	0.06300
153.89780	1146.51000	0.06800
154.17082	1146.25000	0.07000
154.43783	1146.83000	0.07300
154.71085	1146.50000	0.08000
154.97786	1147.15000	0.08300
155.25088	1146.31000	0.09000
155.51790	1146.72000	0.09400
155.79091	1146.15000	0.09500
156.05793	1146.62000	0.09600
156.33094	1147.50000	0.10100
156.59796	1147.11000	0.10400
156.86997	1145.80000	0.11400
157.13799	1146.00000	0.11700
157.41100	1145.96000	0.11700
157.67802	1146.44000	0.11800
157.95103	1146.57000	0.12600
158.21805	1146.87000	0.12800
158.49007	1146.53000	0.13400
158.75808	1146.66000	0.13400
159.03010	1145.86000	0.13800
159.29911	1146.15000	0.14300
159.57913	1146.47000	0.14700
159.85914	1146.76000	0.15000
160.13916	1146.97000	0.15200
160.41818	1147.14000	0.16000
160.69019	1146.71000	0.16400
160.95821	1146.83000	0.16600
161.23122	1146.38000	0.17100
161.49824	1146.78000	0.17600
161.77125	1146.21000	0.18100
162.03927	1146.58000	0.18600
162.31828	1146.67000	0.18600
162.59130	1145.76000	0.19000
162.85732	1146.03000	0.19200
163.13133	1145.39000	0.19700
163.39735	1145.64000	0.20100
163.67136	1144.94000	0.20400
163.93738	1145.34000	0.20700
164.21139	1144.98000	0.21200
164.47741	1145.48000	0.21300
164.75142	1145.37000	0.21700
165.01744	1145.91000	0.22500
165.29045	1145.58000	0.23000
165.55747	1146.17000	0.23000
165.83148	1145.96000	0.23300
166.09750	1146.40000	0.23800
166.37152	1146.07000	0.23900
166.63853	1146.44000	0.24300
166.91155	1145.83000	0.24800
167.17756	1146.12000	0.24900
167.45158	1145.62000	0.25700
167.71759	1146.02000	0.26000
167.99161	1145.59000	0.26600
168.25762	1145.95000	0.26700
168.53164	1145.68000	0.26900
168.79866	1146.01000	0.27500
169.07067	1145.48000	0.27700
169.33869	1145.59000	0.28200
169.61170	1144.92000	0.28900
169.87772	1145.16000	0.29000
170.15173	1144.64000	0.29500
170.41875	1144.79000	0.29900
170.69876	1145.07000	0.30200
170.97078	1144.42000	0.30400
171.23779	1144.73000	0.31000
171.51081	1144.31000	0.30800
171.77783	1144.73000	0.31700
172.05084	1144.32000	0.31900
172.31786	1144.63000	0.32700
172.59087	1144.19000	0.32600
172.85889	1144.52000	0.33300
173.13790	1144.69000	0.33500
173.41192	1144.26000	0.34100
173.67893	1144.28000	0.34600
173.95795	1144.39000	0.34800
174.23197	1143.82000	0.35300
174.49698	1143.89000	0.35400
174.77100	1143.38000	0.35600
175.03801	1143.54000	0.36200
175.31003	1143.18000	0.36400
175.57804	1143.50000	0.36700
175.85106	1143.26000	0.37200
176.11907	1143.43000	0.37600
176.39709	1143.56000	0.38100
176.67111	1143.14000	0.38200
176.93712	1143.26000	0.39000
177.21114	1142.88000	0.39100
177.47715	1143.07000	0.39500
177.75117	1142.47000	0.39800
178.01718	1142.55000	0.40100
178.29020	1142.03000	0.40900
178.55721	1142.27000	0.41300
178.83023	1141.87000	0.41200
179.09724	1142.19000	0.41900
179.37126	1141.75000	0.42300
179.63728	1142.00000	0.42400
179.91129	1141.44000	0.42900
180.17731	1141.61000	0.43300
180.45032	1140.90000	0.43700
180.71734	1141.24000	0.43900
180.99135	1141.01000	0.44500
181.25937	1141.47000	0.45000
181.53738	1141.72000	0.44900
181.81140	1141.16000	0.45800
182.07841	1141.36000	0.46000
182.35143	1140.82000	0.46200
182.61745	1141.25000	0.46800
182.89146	1140.92000	0.46900
183.15748	1141.29000	0.47300
183.42949	1140.69000	0.47600
183.69751	1141.17000	0.48200
183.97152	1140.61000	0.48800
184.23754	1140.93000	0.49000
184.51155	1140.49000	0.49500
184.77757	1141.04000	0.50200
185.05158	1140.85000	0.50000
185.31760	1141.03000	0.50400
185.59162	1140.68000	0.50900
185.85763	1141.27000	0.51300
186.13165	1141.14000	0.51800
186.39766	1141.70000	0.52300
186.67168	1141.64000	0.52400
186.93869	1142.25000	0.52700
187.21771	1142.56000	0.53300
187.49072	1142.07000	0.53500
187.75874	1142.46000	0.53900
188.03776	1142.77000	0.54300
188.31177	1142.26000	0.54600
188.57779	1142.77000	0.54900
188.85180	1142.46000	0.55300
189.11782	1142.88000	0.55800
189.39183	1142.60000	0.56100
189.65885	1143.00000	0.56800
189.93786	1143.38000	0.57000
190.21188	1143.08000	0.57400
190.47890	1143.47000	0.57900
190.75891	1143.88000	0.58100
191.03893	1144.29000	0.59000
191.31894	1144.42000	0.58900
191.59896	1144.62000	0.59600
191.87898	1144.81000	0.59600
192.15899	1144.84000	0.60100
192.43901	1145.01000	0.60200
192.71902	1145.34000	0.60700
192.99704	1145.53000	0.61300
193.27105	1145.09000	0.61500
193.53907	1145.42000	0.62200
193.81909	1145.48000	0.62500
194.09910	1145.67000	0.62900
194.37912	1145.76000	0.62700
194.65713	1145.79000	0.63300
194.93115	1145.07000	0.63800
195.19916	1145.55000	0.64500
195.47918	1146.01000	0.64500
195.75920	1146.26000	0.64900
196.03721	1146.34000	0.65200
196.31123	1145.68000	0.66100
196.57924	1145.99000	0.66200
196.85926	1146.42000	0.66600
197.13928	1146.79000	0.67100
197.41829	1147.14000	0.67300
197.69131	1146.51000	0.67800
197.95832	1146.91000	0.68300
198.23134	1146.29000	0.68500
198.49735	1146.56000	0.68600
198.77137	1146.15000	0.69400
199.03838	1146.47000	0.69700
199.31740	1146.88000	0.69800
199.59142	1146.47000	0.70300
199.85743	1146.82000	0.70900
200.13145	1146.18000	0.71100
200.39746	1146.51000	0.71700
200.67148	1146.00000	0.71700
200.93849	1146.32000	0.72000
201.21751	1146.70000	0.72700
201.49152	1146.34000	0.73000
201.75854	1146.62000	0.73600
202.03656	1146.88000	0.73900
202.31157	1146.17000	0.74000
202.57859	1146.40000	0.74700
202.85760	1146.69000	0.75000
203.13162	1146.18000	0.75400
203.39863	1146.61000	0.76000
203.67765	1146.71000	0.76100
203.95167	1146.15000	0.76700
204.21868	1146.29000	0.76900
204.49770	1146.53000	0.76900
204.77171	1146.17000	0.77900
205.03873	1146.39000	0.78200
205.31774	1146.45000	0.78600
205.59076	1145.67000	0.78500
205.85877	1145.60000	0.78900
206.13679	1145.73000	0.79500
206.41181	1145.43000	0.79600
206.67882	1145.62000	0.80100
206.95884	1145.69000	0.80800
207.23885	1145.86000	0.80900
207.51887	1145.83000	0.81400
207.79889	1145.53000	0.81900
208.07890	1145.44000	0.82400
208.35892	1145.48000	0.82900
208.63893	1145.38000	0.82900
208.91895	1145.22000	0.83600
209.19897	1145.12000	0.83700
209.47798	1144.90000	0.84100
209.75200	1144.04000	0.84500
210.01801	1144.30000	0.85100
210.29103	1143.94000	0.85400
210.55804	1144.12000	0.85600
210.83106	1143.30000	0.86100
211.09907	1143.32000	0.86400
211.37709	1143.47000	0.86600
211.65111	1142.68000	0.87100
211.91812	1142.94000	0.87500
212.19114	1142.34000	0.88000
212.45815	1142.62000	0.88200
212.73617	1142.66000	0.89000
213.01118	1141.96000	0.89200
213.27720	1142.25000	0.89400
213.55021	1141.59000	0.89600
213.81823	1141.98000	0.90500
214.09825	1142.14000	0.90600
214.37626	1142.30000	0.91100
214.65128	1141.80000	0.91300
214.91829	1142.04000	0.91800
215.19831	1142.18000	0.91900
215.47832	1142.23000	0.92600
215.75834	1142.03000	0.93300
216.03836	1142.13000	0.93700
216.31837	1142.05000	0.93700
216.59839	1141.95000	0.94500
216.87841	1141.93000	0.94400
217.15842	1141.77000	0.95000
217.43844	1141.60000	0.95300
217.71845	1141.53000	0.95500
217.99847	1141.57000	0.96200
218.27848	1141.53000	0.96800
218.55850	1141.45000	0.97000
218.83852	1141.42000	0.96900
219.11853	1141.43000	0.97800
219.39855	1141.64000	0.97700
219.67656	1141.56000	0.98300
219.95158	1140.82000	0.98700
220.21860	1141.40000	0.99500
220.49861	1141.79000	0.99500
220.77863	1142.12000	0.99900
221.05864	1142.41000	1.00400
221.33666	1142.58000	1.00800
221.61068	1142.32000	1.01400
221.87669	1142.68000	1.01400
222.15171	1142.08000	1.02000
222.41672	1142.52000	1.01900
222.69074	1142.14000	1.02300
222.95875	1142.66000	1.03200
223.23877	1143.13000	1.03300
223.51678	1143.43000	1.04000
223.79080	1142.93000	1.04000
224.05882	1143.30000	1.04200
224.33783	1143.58000	1.04900
224.61185	1142.99000	1.05200
224.87886	1143.32000	1.05400
225.15788	1143.52000	1.05800
225.43189	1143.24000	1.06300
225.69791	1143.71000	1.06700
225.97192	1143.45000	1.07000
226.23694	1143.98000	1.07400
226.51196	1143.84000	1.07800
226.77797	1144.34000	1.08500
227.05799	1144.83000	1.08900
227.33800	1145.19000	1.09100
227.61802	1145.20000	1.09600
227.89804	1145.23000	1.09800
228.17805	1145.25000	1.10200
228.45807	1145.33000	1.10900
228.73808	1145.46000	1.11100
229.01810	1145.61000	1.11200
229.29812	1145.63000	1.12100
229.57813	1145.68000	1.12000
229.85815	1145.95000	1.12500
230.13816	1146.33000	1.12900
230.41818	1146.60000	1.13200
230.69820	1146.83000	1.13300
230.97821	1146.95000	1.13800
231.25823	1147.30000	1.14300
231.53424	1147.45000	1.15000
231.81026	1147.07000	1.15200
232.07827	1147.32000	1.15700
232.35829	1147.34000	1.16000
232.63831	1147.14000	1.16300
232.91832	1147.18000	1.17100
233.19834	1147.26000	1.17300
233.47835	1147.35000	1.17500
233.75637	1147.30000	1.18000
234.03139	1146.69000	1.18100
234.29840	1146.85000	1.18900
234.57842	1147.06000	1.19200
234.85843	1147.26000	1.19500
235.13845	1147.23000	1.19900
235.41847	1147.09000	1.20100
235.69848	1146.93000	1.20700
235.97850	1146.91000	1.21100
236.25651	1146.63000	1.21300
236.53153	1146.02000	1.21700
236.79854	1146.05000	1.21900
237.07656	1146.14000	1.22500
237.35158	1145.46000	1.22600
237.61859	1145.73000	1.23600
237.89861	1145.85000	1.23500
238.17862	1145.78000	1.24300
238.45864	1145.80000	1.24400
238.73766	1145.78000	1.24700
239.01167	1145.35000	1.25200
239.27769	1145.38000	1.25700
239.55170	1144.69000	1.26200
239.81772	1144.76000	1.26400
240.09773	1144.69000	1.26800
240.37775	1144.49000	1.27100
240.65776	1144.28000	1.27400
240.93778	1144.03000	1.27500
241.21780	1143.72000	1.28400
241.49781	1143.40000	1.28500
241.77483	1143.16000	1.28800
242.04984	1142.23000	1.29100
242.31786	1142.24000	1.29800
242.59788	1142.34000	1.29900
242.87789	1142.27000	1.30600
243.15791	1142.10000	1.30800
243.43792	1142.03000	1.31500
243.71794	1141.80000	1.31800
243.99796	1141.61000	1.32000
244.27797	1141.45000	1.32400
244.55799	1141.42000	1.32400
244.83500	1141.34000	1.33200
245.11002	1140.43000	1.33300
245.37804	1140.60000	1.33600
245.65805	1140.83000	1.34100
245.93807	1141.01000	1.34900
246.21508	1141.27000	1.35100
246.49110	1140.55000	1.35000
246.75811	1141.11000	1.35600
247.03813	1141.46000	1.36300
247.31815	1141.54000	1.36700
247.59416	1141.94000	1.36900
247.87018	1141.26000	1.37000
248.13419	1141.75000	1.37200
248.41021	1141.35000	1.37800
248.67822	1141.96000	1.38300
248.95824	1142.42000	1.38900
249.23826	1142.61000	1.39200
249.51827	1142.81000	1.39600
249.79429	1143.03000	1.40000
250.07030	1142.44000	1.40600
250.33832	1142.97000	1.40800
250.61833	1143.38000	1.40900
250.89835	1143.65000	1.41200
251.17837	1143.82000	1.41500
251.45838	1143.85000	1.42400
251.73840	1144.10000	1.42300
252.01841	1144.26000	1.42700
252.29843	1144.56000	1.43100
252.57845	1144.70000	1.43500
252.85746	1144.77000	1.43900
253.13148	1144.17000	1.44500
253.39449	1144.55000	1.44800
253.67051	1144.28000	1.45100
253.93453	1144.59000	1.45300
254.20954	1144.13000	1.45800
254.47756	1144.51000	1.46100
254.75757	1144.78000	1.46300
255.03759	1144.89000	1.47100
255.31760	1144.94000	1.47300
255.59762	1145.11000	1.47700
255.87764	1145.26000	1.47900
256.15765	1145.45000	1.48400
256.43767	1145.73000	1.48700
256.71768	1145.95000	1.49200
256.99770	1146.21000	1.49500
257.27772	1146.30000	1.49900
257.55773	1146.25000	1.50200
257.83775	1146.20000	1.50400
258.11776	1146.30000	1.51100
258.39778	1146.48000	1.51100
258.67480	1146.62000	1.51600
258.94981	1146.00000	1.51900
259.21783	1146.35000	1.52500
259.49484	1146.52000	1.52800
259.76986	1145.79000	1.52900
260.03487	1146.07000	1.53400
260.30989	1145.84000	1.53600
260.57790	1146.46000	1.54000
260.85492	1146.97000	1.54600
261.12994	1146.49000	1.54600
261.39795	1147.00000	1.55100
261.67797	1147.24000	1.55500
261.95798	1147.43000	1.55900
262.23500	1147.40000	1.56500
262.51002	1146.66000	1.56200
262.77803	1146.89000	1.57000
263.05405	1146.99000	1.57100
263.33006	1146.36000	1.57400
263.59508	1146.76000	1.58100
263.87009	1146.15000	1.58200
264.13511	1146.42000	1.58700
264.41012	1145.98000	1.59000
264.67414	1146.43000	1.59400
264.95015	1146.13000	1.59500
265.21417	1146.63000	1.59800
265.49019	1146.28000	1.60000
265.75420	1146.65000	1.60700
266.02922	1146.18000	1.61300
266.29423	1146.62000	1.61200
266.57025	1146.50000	1.61400
266.83826	1146.93000	1.61800
267.11828	1146.93000	1.62300
267.39529	1146.87000	1.62700
267.67131	1146.09000	1.63200
267.93532	1146.30000	1.63700
268.21134	1145.59000	1.63500
268.47736	1145.92000	1.63800
268.75737	1146.15000	1.64100
269.03539	1146.41000	1.64600
269.31140	1145.82000	1.64600
269.57442	1146.12000	1.65600
269.85043	1145.41000	1.65300
270.11745	1145.68000	1.65800
270.39547	1145.74000	1.66100
270.67148	1145.33000	1.66300
270.93550	1145.55000	1.66800
271.21151	1144.86000	1.67200
271.47553	1145.18000	1.67200
271.75154	1144.85000	1.67600
272.01756	1144.99000	1.68100
272.29757	1145.07000	1.68200
272.57759	1145.13000	1.69000
272.85561	1145.09000	1.68800
273.13162	1144.51000	1.69200
273.39764	1144.62000	1.69400
273.67765	1144.70000	1.69900
273.95767	1144.77000	1.70000
274.23769	1144.76000	1.70600
274.51770	1144.63000	1.70700
274.79772	1144.34000	1.71000
275.07573	1144.06000	1.71400
275.35175	1143.01000	1.71500
275.61577	1142.87000	1.72000
275.89178	1142.18000	1.72200
276.15780	1142.26000	1.72900
276.43781	1142.34000	1.72900
276.71783	1142.03000	1.73000
276.99784	1141.83000	1.73400
277.27586	1141.71000	1.73700
277.55188	1141.02000	1.73700
277.81789	1141.55000	1.74100
278.09591	1141.77000	1.74700
278.37192	1141.10000	1.74500
278.63794	1141.32000	1.75100
278.91595	1141.42000	1.75200
279.19197	1140.86000	1.75700
279.45798	1141.24000	1.75900
279.73800	1141.44000	1.76100
280.01802	1141.68000	1.76600
280.29803	1141.85000	1.76700
280.57805	1142.09000	1.77000
280.85806	1142.30000	1.77200
281.13808	1142.58000	1.77600
281.41810	1142.86000	1.77700
281.69611	1143.04000	1.78000
281.97113	1142.65000	1.78300
282.23514	1143.23000	1.78500
282.51116	1143.17000	1.78600
282.77717	1143.85000	1.78800
283.05719	1144.36000	1.79300
283.33521	1144.64000	1.79800
283.61122	1143.93000	1.79800
283.87524	1144.53000	1.80100
284.15125	1144.35000	1.80500
284.41727	1144.88000	1.80400
284.69528	1145.39000	1.80700
284.97130	1145.18000	1.80600
285.23531	1145.68000	1.81000
285.51133	1145.31000	1.81400
285.77535	1145.52000	1.81800
286.05136	1145.06000	1.81900
286.31538	1145.45000	1.81900
286.59139	1145.06000	1.82100
286.85541	1145.71000	1.82500
287.13142	1145.65000	1.82500
287.39544	1146.28000	1.82600
287.67145	1146.05000	1.83200
287.93547	1146.73000	1.83200
288.21148	1146.37000	1.83300
288.47750	1146.86000	1.83400
288.75552	1147.17000	1.83500
289.03153	1146.84000	1.83800
289.29555	1147.20000	1.84100
289.57156	1146.70000	1.84400
289.83558	1146.98000	1.84600
290.11159	1146.33000	1.84500
290.37561	1146.40000	1.84700
290.65162	1145.73000	1.85100
290.91564	1146.10000	1.84700
291.19166	1145.82000	1.85100
291.45567	1146.20000	1.85700
291.73169	1145.89000	1.85500
291.99570	1146.33000	1.85400
292.27172	1145.85000	1.85700
292.53773	1146.24000	1.86200
292.81575	1146.41000	1.85800
293.09176	1145.74000	1.86300
293.35578	1146.08000	1.86400
293.63180	1145.87000	1.86400
293.89581	1146.16000	1.86900
294.17183	1145.64000	1.86700
294.43584	1146.15000	1.86900
294.71186	1145.64000	1.87000
294.97387	1146.03000	1.86900
295.24989	1145.59000	1.86700
295.51390	1146.00000	1.87100
295.78992	1145.38000	1.87100
296.05393	1145.86000	1.87200
296.32995	1145.32000	1.87300
296.59397	1145.62000	1.87400
296.86998	1145.17000	1.87300
297.13400	1145.66000	1.87400
297.40901	1145.29000	1.87700
297.67403	1145.67000	1.87400
297.94904	1145.40000	1.87800
298.21706	1145.90000	1.87700
298.49407	1146.17000	1.88000
298.76909	1145.68000	1.87700
299.03710	1146.09000	1.87900
299.31412	1146.37000	1.88000
299.58914	1145.91000	1.88100
299.85715	1146.15000	1.88100
300.13417	1146.29000	1.88400
300.41018	1145.90000	1.88000
300.67420	1146.06000	1.88500
300.95021	1145.51000	1.88300
301.21423	1145.76000	1.88200
301.49024	1145.15000	1.88600
301.75426	1145.67000	1.88500
302.03028	1145.42000	1.88400
302.29429	1145.99000	1.88000
302.57031	1145.52000	1.88500
302.83432	1145.70000	1.88100
303.11034	1145.12000	1.88300
303.37335	1145.50000	1.88300
303.64937	1145.15000	1.88200
303.91338	1145.45000	1.88200
304.18940	1145.07000	1.88200
304.45341	1145.38000	1.88400
304.72943	1144.99000	1.88300
304.99344	1145.47000	1.88300
305.26946	1145.11000	1.88300
305.53348	1145.41000	1.88000
305.80949	1145.01000	1.87700
306.07351	1145.38000	1.88100
306.34952	1144.87000	1.87700
306.61354	1145.18000	1.88000
306.88955	1144.77000	1.87900
307.15357	1145.11000	1.87600
307.42958	1144.77000	1.87600
307.69360	1145.09000	1.87400
307.96962	1144.56000	1.87900
308.23363	1144.93000	1.87200
308.50965	1144.48000	1.87400
308.77366	1144.90000	1.87400
309.04968	1144.31000	1.87100
309.31369	1144.66000	1.87000
309.58971	1144.27000	1.86900
309.85372	1144.73000	1.86800
310.12974	1144.33000	1.87100
310.39575	1144.61000	1.86400
310.67177	1144.29000	1.86700
310.93378	1144.52000	1.86100
311.20980	1144.10000	1.86100
311.47582	1144.63000	1.85800
311.75183	1144.57000	1.86200
312.01585	1145.09000	1.85700
312.29186	1144.74000	1.86000
312.55388	1144.92000	1.85400
312.82889	1144.17000	1.85200
313.09591	1144.41000	1.85500
313.37092	1143.86000	1.85300
313.63394	1144.21000	1.84900
313.90895	1143.84000	1.84900
314.17397	1144.41000	1.84800
314.44999	1144.13000	1.84300
314.71400	1144.58000	1.84300
314.99002	1144.42000	1.84000
315.25403	1144.84000	1.84300
315.52905	1144.43000	1.84000
315.79406	1144.76000	1.83800
316.06908	1144.60000	1.83200
316.33409	1144.88000	1.83400
316.60911	1144.40000	1.83000
316.87512	1144.69000	1.83300
317.15114	1144.43000	1.82700
317.41416	1144.76000	1.82500
317.68917	1144.27000	1.82300
317.95419	1144.70000	1.82300
318.22920	1144.53000	1.82400
318.49222	1144.29000	1.81500
318.75323	1144.69000	1.81800
319.02925	1144.45000	1.81300
319.29326	1144.75000	1.81200
319.56928	1144.36000	1.80800
319.83329	1144.52000	1.80800
320.10931	1143.99000	1.80600
320.37332	1144.19000	1.80100
320.64934	1143.67000	1.80100
320.91336	1143.89000	1.80100
321.18937	1143.54000	1.79700
321.45339	1143.82000	1.79400
321.72940	1143.27000	1.79600
321.99342	1143.67000	1.79100
322.26943	1143.31000	1.78800
322.53345	1143.53000	1.78500
322.80946	1143.22000	1.78400
323.07348	1143.39000	1.77900
323.34949	1142.76000	1.77700
323.61351	1143.15000	1.77300
323.88953	1142.88000	1.77300
324.15354	1143.14000	1.77100
324.42956	1142.46000	1.76800
324.69357	1142.74000	1.76200
324.96959	1142.20000	1.76200
325.23360	1142.35000	1.75600
325.50962	1141.80000	1.75600
325.77363	1142.05000	1.74800
326.04965	1141.57000	1.75100
326.31366	1142.04000	1.75000
326.58868	1141.72000	1.74400
326.85370	1142.19000	1.74400
327.12871	1141.67000	1.73700
327.39373	1142.15000	1.73800
327.66974	1141.70000	1.73200
327.93376	1142.08000	1.73000
328.20877	1141.60000	1.72800
328.47379	1142.06000	1.72600
328.74880	1141.73000	1.72300
329.01382	1142.16000	1.72000
329.28983	1141.72000	1.71400
329.55385	1142.15000	1.71300
329.82887	1141.70000	1.71000
330.09388	1142.04000	1.71000
330.36890	1141.51000	1.70400
330.63391	1141.85000	1.69900
330.90893	1141.23000	1.70300
331.17394	1141.58000	1.69800
331.44896	1141.12000	1.69400
331.71397	1141.45000	1.68700
331.98899	1140.71000	1.68700
332.25400	1141.03000	1.68700
332.52902	1140.46000	1.68100
332.79404	1141.03000	1.67800
333.06905	1140.77000	1.67900
333.33407	1141.22000	1.67100
333.60908	1140.77000	1.66600
333.87410	1141.11000	1.66400
334.14911	1140.77000	1.66100
334.41413	1141.29000	1.65800
334.68914	1141.13000	1.65500
334.95416	1141.54000	1.65200
335.22917	1141.21000	1.65200
335.49419	1141.42000	1.64700
335.76921	1141.10000	1.64300
336.03322	1141.60000	1.63800
336.30924	1141.18000	1.63600
336.57325	1141.71000	1.63600
336.84927	1141.35000	1.63400
337.11328	1141.46000	1.62800
337.38930	1140.90000	1.62400
337.65331	1141.17000	1.62200
337.92933	1140.59000	1.61800
338.19334	1140.88000	1.61300
338.46936	1140.18000	1.61000
338.73337	1140.63000	1.60600
339.00939	1140.18000	1.60400
339.27341	1140.60000	1.60500
339.54942	1140.19000	1.59800
339.81344	1140.62000	1.59500
340.08845	1140.22000	1.59200
340.35347	1140.63000	1.58900
340.62948	1140.01000	1.58400
340.89350	1140.70000	1.58000
341.16851	1140.51000	1.57700
341.43353	1140.82000	1.57300
341.70954	1140.35000	1.57000
341.97356	1140.81000	1.56600
342.24858	1140.40000	1.56300
342.51359	1140.75000	1.56100
342.78861	1140.24000	1.55900
343.05362	1140.52000	1.55300
343.32864	1139.82000	1.55200
343.59465	1140.24000	1.54700
343.86867	1139.90000	1.54100
344.13368	1140.40000	1.54000
344.40870	1139.80000	1.53800
344.67371	1140.21000	1.53300
344.94873	1139.99000	1.53100
345.21375	1140.63000	1.52600
345.48876	1140.36000	1.52500
345.75378	1140.78000	1.51800
346.02879	1140.38000	1.51600
346.29381	1140.68000	1.51300
346.56882	1140.43000	1.50800
346.83384	1140.89000	1.50200
347.10885	1140.73000	1.50300
347.37387	1141.16000	1.50000
347.64888	1140.85000	1.49800
347.91290	1141.25000	1.49100
348.18892	1140.87000	1.48300
348.45293	1141.21000	1.48300
348.72895	1140.62000	1.48000
348.99296	1140.86000	1.47700
349.26898	1140.24000	1.47300
349.53299	1140.55000	1.47000
349.80901	1139.96000	1.46700
350.07502	1140.52000	1.46100
350.35104	1140.33000	1.45800
350.61505	1140.79000	1.45500
350.89107	1140.35000	1.45300
351.15609	1140.71000	1.44900
351.43310	1141.26000	1.44500
351.70912	1140.99000	1.44400
351.97313	1141.41000	1.43700
352.24915	1141.03000	1.43300
352.51316	1141.66000	1.43000
352.78918	1141.32000	1.42500
353.05319	1141.80000	1.42600
353.32921	1141.38000	1.41800
353.59323	1141.93000	1.41600
353.86924	1141.86000	1.40900
354.13326	1142.28000	1.40500
354.40927	1141.84000	1.40600
354.67329	1142.38000	1.39800
354.94930	1142.17000	1.39900
355.21432	1142.67000	1.39400
355.48833	1142.24000	1.39000
355.75335	1142.54000	1.38500
356.02836	1142.06000	1.38600
356.29638	1142.44000	1.38400
356.57440	1142.66000	1.37700
356.84841	1141.96000	1.37200
357.11343	1142.28000	1.36700
357.38844	1141.70000	1.36500
357.65446	1142.06000	1.36000
357.92847	1141.52000	1.36100
358.19349	1141.91000	1.35400
358.46850	1141.43000	1.34600
358.73352	1141.79000	1.34600
359.00853	1141.41000	1.34500
359.27355	1141.85000	1.33600
359.54856	1141.40000	1.33500
359.81358	1141.83000	1.32800
360.08860	1141.32000	1.32500
360.35661	1141.88000	1.32400
360.63363	1142.35000	1.32200
360.90864	1141.75000	1.31600
361.17666	1142.05000	1.31200
361.45267	1142.27000	1.30900
361.72869	1141.51000	1.30400
361.99370	1141.83000	1.30200
362.26872	1141.10000	1.29800
362.53274	1141.59000	1.29700
362.80875	1140.97000	1.29000
363.07277	1141.29000	1.28500
363.34878	1140.74000	1.28600
363.61280	1141.34000	1.28000
363.88881	1141.24000	1.27700
364.15283	1141.71000	1.27000
364.42884	1141.34000	1.26800
364.69286	1141.85000	1.26700
364.96888	1141.24000	1.26200
365.23289	1141.59000	1.25600
365.50891	1141.04000	1.25300
365.77292	1141.64000	1.24600
366.04894	1141.38000	1.24600
366.31295	1142.00000	1.24200
366.58897	1141.79000	1.23400
366.85298	1142.40000	1.23600
367.12900	1142.19000	1.22800
367.39301	1142.80000	1.23000
367.66903	1142.52000	1.22500
367.93404	1142.94000	1.22000
368.20906	1142.83000	1.21700
368.47408	1143.14000	1.21200
368.74909	1142.40000	1.21000
369.01311	1142.57000	1.20700
369.28812	1141.94000	1.20200
369.55314	1142.54000	1.19800
369.82815	1142.19000	1.19400
370.09317	1142.79000	1.19000
370.36918	1142.47000	1.18700
370.63320	1143.02000	1.18300
370.90721	1142.50000	1.17700
371.17323	1142.88000	1.17600
371.44825	1142.33000	1.16900
371.71326	1142.86000	1.16700
371.98828	1142.38000	1.16200
372.25329	1142.95000	1.16000
372.52831	1142.46000	1.15600
372.79332	1142.95000	1.15200
373.06834	1142.54000	1.14800
373.33335	1142.95000	1.14400
373.60837	1142.64000	1.14000
373.87338	1143.16000	1.13600
374.14840	1142.64000	1.13500
374.41442	1143.08000	1.13200
374.68843	1142.73000	1.12800
374.95345	1143.21000	1.12400
375.22846	1142.98000	1.11800
375.49348	1143.48000	1.11500
375.76849	1143.21000	1.11300
376.03251	1143.69000	1.10600
376.30852	1143.24000	1.10400
376.57454	1143.47000	1.10200
376.84855	1143.21000	1.09700
377.11257	1143.58000	1.09000
377.38859	1142.93000	1.08900
377.65260	1143.47000	1.08600
377.92862	1143.03000	1.08100
378.19463	1143.41000	1.08000
378.46865	1143.01000	1.07300
378.73466	1144.11000	1.07200
379.00868	1143.62000	1.06900
379.27469	1143.30000	1.06200
379.54871	1142.84000	1.06100
379.81472	1142.84000	1.05700
380.08874	1142.76000	1.05100
380.35476	1142.17000	1.05000
380.62877	1142.41000	1.04800
380.89479	1142.78000	1.04000
381.16880	1142.19000	1.03700
381.43482	1143.07000	1.03300
381.70883	1142.68000	1.03100
381.97485	1143.11000	1.02300
382.24886	1142.58000	1.02100
382.51488	1142.95000	1.01700
382.78889	1142.53000	1.01400
383.05391	1142.97000	1.01200
383.32893	1142.44000	1.00600
383.59394	1142.81000	1.00200
383.86896	1142.46000	0.99800
384.13397	1143.02000	0.99600
384.40899	1142.45000	0.99300
384.67400	1142.92000	0.98900
384.94802	1142.33000	0.98700
385.21403	1142.73000	0.98000
385.48805	1142.43000	0.97400
385.75306	1143.11000	0.97200
386.02808	1142.69000	0.96800
386.29410	1143.12000	0.96300
386.56811	1142.47000	0.96000
386.83413	1142.77000	0.95700
387.10814	1142.42000	0.95100
387.37416	1143.02000	0.94800
387.64817	1142.40000	0.94700
387.91419	1143.02000	0.94400
388.18820	1142.43000	0.93700
388.45422	1143.21000	0.93700
388.72823	1142.81000	0.93300
388.99425	1143.40000	0.92800
389.26826	1142.98000	0.92000
389.53428	1143.64000	0.91700
389.80830	1143.26000	0.91500
390.07431	1143.84000	0.91200
390.34833	1143.41000	0.90800
390.61434	1143.83000	0.90200
390.88836	1143.34000	0.90000
391.15437	1144.16000	0.89700
391.42839	1144.11000	0.89400
391.69440	1144.68000	0.88800
391.96842	1144.41000	0.88500
392.23443	1144.89000	0.88300
392.50845	1144.44000	0.88000
392.77447	1144.92000	0.87900
393.04848	1144.41000	0.87200
393.31450	1144.81000	0.87000
393.58851	1144.38000	0.86300
393.85253	1144.64000	0.85900
394.12854	1143.97000	0.85500
394.39456	1144.35000	0.85100
394.66857	1143.90000	0.84700
394.93359	1144.51000	0.84600
395.20860	1144.10000	0.84100
395.47262	1144.65000	0.83500
395.74864	1144.09000	0.83200
396.01465	1144.57000	0.83100
396.28867	1143.96000	0.82400
396.55268	1144.56000	0.82200
396.82870	1143.84000	0.81800
397.09271	1144.57000	0.81400
397.36873	1144.35000	0.81200
397.63274	1145.15000	0.80600
397.90876	1144.75000	0.80100
398.17277	1145.38000	0.80000
398.44879	1145.28000	0.79300
398.71280	1145.88000	0.79400
398.98882	1145.44000	0.79000
399.25284	1145.79000	0.78600
399.52885	1145.34000	0.77700
399.79287	1145.88000	0.78100
400.06888	1145.33000	0.77200
400.33490	1145.90000	0.77100
400.60791	1145.60000	0.76600
400.87193	1146.03000	0.76200
401.14794	1145.81000	0.75400
401.41296	1146.42000	0.75400
401.68798	1146.13000	0.74900
401.95299	1146.45000	0.74600
402.22801	1146.25000	0.74100
402.49302	1146.65000	0.74000
402.76804	1146.16000	0.73600
403.03205	1146.53000	0.73200
403.30807	1145.91000	0.72900
403.57308	1146.45000	0.72400
403.84810	1146.15000	0.72100
404.11311	1146.64000	0.71800
404.38813	1146.16000	0.71600
404.65214	1146.49000	0.71000
404.92816	1146.18000	0.70600
405.19318	1146.73000	0.70100
405.46819	1146.10000	0.70200
405.73421	1146.58000	0.69400
406.00822	1146.14000	0.69200
406.27324	1146.52000	0.68700
406.54825	1146.15000	0.68000
406.81227	1146.52000	0.67800
407.08828	1146.11000	0.67600
407.35530	1146.42000	0.67100
407.63432	1146.59000	0.67000
407.90833	1145.98000	0.66400
408.17435	1146.41000	0.66200
408.44836	1145.75000	0.65700
408.71238	1146.16000	0.65300
408.98839	1145.66000	0.64800
409.25441	1145.98000	0.64800
409.52842	1145.60000	0.64200
409.79444	1145.93000	0.63900
410.06845	1145.59000	0.63200
410.33547	1146.02000	0.63100
410.61449	1146.49000	0.62300
410.88850	1146.23000	0.62200
411.15452	1146.53000	0.62200
411.42853	1146.24000	0.61100
411.69555	1146.53000	0.60800
411.97256	1146.60000	0.60800
412.24858	1145.78000	0.60200
412.51259	1145.68000	0.60000
412.78861	1145.12000	0.59300
413.05263	1145.19000	0.59200
413.32864	1144.34000	0.58600
413.59266	1144.45000	0.58600
413.86767	1143.89000	0.58000
414.13569	1144.17000	0.57900
414.41270	1144.48000	0.57300
414.68772	1143.96000	0.56800
414.95373	1144.26000	0.56300
415.22775	1143.86000	0.56000
415.49376	1144.26000	0.55900
415.76778	1143.56000	0.55700
416.03280	1143.79000	0.55200
416.30781	1143.32000	0.54800
416.57183	1143.44000	0.54400
416.84784	1142.81000	0.53700
417.11386	1142.96000	0.53700
417.38787	1142.53000	0.53300
417.65189	1142.65000	0.52900
417.92790	1141.94000	0.52300
418.19592	1142.10000	0.52400
418.47194	1142.02000	0.51500
418.74795	1141.46000	0.51300
419.01597	1141.72000	0.50800
419.29198	1141.88000	0.50700
419.56800	1141.15000	0.49800
419.83201	1141.36000	0.49700
420.10803	1140.80000	0.49200
420.37204	1141.13000	0.49100
420.64806	1140.65000	0.48400
420.91508	1140.90000	0.48200
421.19409	1141.01000	0.47900
421.46811	1140.25000	0.47200
421.73412	1140.51000	0.46900
422.00814	1139.79000	0.46500
422.27315	1140.31000	0.46400
422.54817	1140.05000	0.46400
422.81318	1140.82000	0.45500
423.08820	1140.65000	0.45300
423.35421	1141.17000	0.45200
423.62823	1140.74000	0.44400
423.89225	1141.29000	0.44100
424.16826	1140.80000	0.43900
424.43428	1141.52000	0.43200
424.70829	1141.32000	0.42800
424.97531	1141.81000	0.42400
425.25532	1142.38000	0.42300
425.53234	1142.66000	0.41800
425.80836	1142.12000	0.41300
426.07337	1142.56000	0.40700
426.34839	1142.03000	0.40900
426.61240	1142.50000	0.40300
426.88842	1142.02000	0.40000
427.15543	1142.56000	0.39800
427.43545	1143.16000	0.39400
427.71546	1143.65000	0.39000
427.99548	1143.96000	0.38300
428.27550	1144.19000	0.37600
428.55551	1144.42000	0.37700
428.83353	1144.61000	0.37300
429.10754	1144.07000	0.37100
429.37156	1144.56000	0.36500
429.64757	1144.32000	0.36200
429.91159	1144.86000	0.35800
430.18761	1144.51000	0.35500
430.45562	1145.08000	0.35000
430.73364	1145.45000	0.34800
431.00765	1144.80000	0.34200
431.27567	1145.02000	0.33700
431.55568	1145.27000	0.32900
431.83570	1145.62000	0.33000
432.11572	1145.80000	0.32700
432.39573	1145.88000	0.32300
432.67575	1145.71000	0.31900
432.95576	1145.61000	0.31200
433.23578	1145.64000	0.31300
433.51580	1145.58000	0.30300
433.79281	1145.36000	0.30100
434.06783	1144.40000	0.30100
434.33484	1144.67000	0.29500
434.61486	1144.90000	0.29100
434.89487	1145.05000	0.29000
435.17489	1145.14000	0.28600
435.45491	1145.37000	0.27800
435.73492	1145.50000	0.27900
436.01294	1145.69000	0.27200
436.28795	1145.02000	0.27000
436.55397	1145.56000	0.26500
436.82799	1145.18000	0.26100
437.09500	1145.45000	0.25700
437.37502	1145.62000	0.25000
437.65503	1145.69000	0.25000
437.93505	1145.82000	0.24500
438.21507	1146.01000	0.24100
438.49308	1146.07000	0.23600
438.76810	1145.20000	0.23200
439.03211	1145.48000	0.23200
439.30813	1145.11000	0.22900
439.57514	1145.60000	0.22200
439.85316	1145.86000	0.21900
440.12817	1145.08000	0.21500
440.39519	1145.59000	0.21000
440.67220	1145.85000	0.20800
440.94822	1145.20000	0.20200
441.21224	1145.64000	0.20100
441.48825	1145.10000	0.19400
441.75527	1145.66000	0.19500
442.03528	1146.14000	0.18700
442.31330	1146.30000	0.18200
442.58832	1145.77000	0.18100
442.85333	1146.05000	0.17900
443.12735	1145.58000	0.17300
443.39536	1145.85000	0.17100
443.67538	1146.13000	0.16300
443.95539	1146.35000	0.16000
444.23341	1146.54000	0.15700
444.50742	1145.78000	0.15700
444.77544	1146.13000	0.15200
445.05546	1146.39000	0.14500
445.33547	1146.33000	0.13900
445.61549	1146.43000	0.14000
445.89550	1146.61000	0.13600
446.17552	1146.62000	0.13000
446.45354	1146.64000	0.12800
446.72755	1145.85000	0.12500
446.99557	1146.02000	0.12100
447.27558	1146.23000	0.11700
447.55560	1146.26000	0.10900
447.83562	1146.42000	0.10800
448.11563	1146.51000	0.10400
448.39565	1146.62000	0.10000
448.67366	1146.62000	0.09500
448.94768	1145.60000	0.09000
449.21569	1145.71000	0.08700
449.49371	1145.92000	0.08400
449.76773	1145.49000	0.08100
450.03374	1145.81000	0.07700
450.30776	1145.49000	0.07500
450.57377	1145.99000	0.07100
450.84779	1145.67000	0.06500
451.11380	1145.94000	0.06300
451.38782	1145.34000	0.05800
451.65383	1145.71000	0.05400
451.92785	1145.30000	0.04900
452.19386	1145.73000	0.04800
452.46788	1145.32000	0.04300
452.73390	1145.72000	0.03800
453.00791	1145.14000	0.03600
453.27293	1145.55000	0.03100
453.54794	1144.85000	0.02800
453.81296	1145.33000	0.02500
454.08797	1144.74000	0.02400
454.35299	1145.40000	0.01700
454.62800	1145.33000	0.01600
454.89302	1145.85000	0.00800
455.16803	1145.23000	0.00200
455.43305	1145.75000	0.00200
455.70807	1145.71000	-0.00400
455.97308	1146.34000	-0.00400
456.24810	1146.10000	-0.00900
456.51311	1146.52000	-0.01100
456.78713	1146.18000	-0.01600
457.05314	1146.54000	-0.02000
457.32716	1146.06000	-0.02400
457.59317	1146.44000	-0.02700
457.86719	1146.02000	-0.02800
458.13320	1146.39000	-0.03400
458.40822	1145.92000	-0.04000
458.67324	1146.45000	-0.04200
458.94725	1146.16000	-0.04400
459.21327	1146.51000	-0.04700
459.48728	1146.07000	-0.05400
459.75330	1146.41000	-0.05600
460.02731	1145.98000	-0.06200
460.29333	1146.33000	-0.06600
460.56734	1145.88000	-0.07000
460.83336	1146.23000	-0.07100
461.10737	1145.81000	-0.07500
461.37339	1146.11000	-0.08000
461.64740	1145.66000	-0.08400
461.91342	1146.11000	-0.09000
462.18744	1145.43000	-0.08700
462.45345	1145.91000	-0.09800
462.72747	1145.58000	-0.10100
462.99348	1146.06000	-0.10400
463.26750	1145.65000	-0.11000
463.53351	1146.11000	-0.11300
463.80753	1145.64000	-0.11400
464.07454	1145.82000	-0.11800
464.35356	1145.95000	-0.12100
464.62758	1145.06000	-0.12300
464.89359	1145.48000	-0.12700
465.16761	1145.04000	-0.13500
465.43362	1145.44000	-0.13700
465.70764	1145.42000	-0.14200
465.97365	1145.88000	-0.14600
466.24767	1145.49000	-0.14600
466.51368	1145.97000	-0.14900
466.78770	1145.63000	-0.15500
467.05371	1145.93000	-0.15900
467.32773	1145.35000	-0.16400
467.59374	1145.77000	-0.16900
467.86776	1145.41000	-0.17000
468.13378	1145.65000	-0.17300
468.40779	1145.40000	-0.17800
468.67381	1145.82000	-0.18200
468.94782	1145.11000	-0.18500
469.21284	1145.34000	-0.19000
469.48785	1144.74000	-0.19400
469.75287	1145.07000	-0.19700
470.02788	1144.50000	-0.20200
470.29390	1144.72000	-0.20400
470.56792	1144.40000	-0.20900
470.83293	1145.05000	-0.21000
471.10795	1144.61000	-0.21400
471.37296	1144.90000	-0.21900
471.64798	1144.67000	-0.22300
471.91399	1145.03000	-0.22500
472.18801	1144.45000	-0.23100
472.45302	1144.74000	-0.23500
472.72704	1144.41000	-0.23800
472.99305	1144.82000	-0.24100
473.26707	1144.40000	-0.24400
473.53308	1144.82000	-0.25000
473.80710	1144.22000	-0.25100
474.07312	1144.39000	-0.25700
474.34813	1143.72000	-0.26400
474.61315	1144.04000	-0.26500
474.88716	1143.67000	-0.26900
475.15318	1144.11000	-0.27000
475.42719	1143.79000	-0.27400
475.69321	1144.26000	-0.28100
475.96722	1143.87000	-0.28400
476.23224	1144.40000	-0.28500
476.50725	1144.08000	-0.29300
476.77227	1144.45000	-0.29100
477.04829	1143.88000	-0.29600
477.31230	1144.51000	-0.30200
477.58732	1144.31000	-0.30300
477.85233	1144.65000	-0.31100
478.12735	1144.24000	-0.31200
478.39236	1144.73000	-0.31700
478.66738	1144.46000	-0.31800
478.93239	1144.79000	-0.32400
479.20741	1144.39000	-0.32600
479.47242	1144.79000	-0.33100
479.74744	1144.00000	-0.33500
480.01246	1144.31000	-0.33900
480.28747	1143.81000	-0.34400
480.55249	1144.09000	-0.34600
480.82750	1143.30000	-0.35200
481.09252	1143.64000	-0.35600
481.36753	1143.20000	-0.35600
481.63255	1143.58000	-0.36500
481.90756	1143.15000	-0.36600
482.17258	1143.50000	-0.37000
482.44759	1143.08000	-0.37300
482.71261	1143.45000	-0.37700
482.98763	1143.01000	-0.37900
483.25264	1143.45000	-0.38100
483.52766	1143.00000	-0.39100
483.79267	1143.32000	-0.39000
484.06769	1142.76000	-0.39700
484.33270	1143.07000	-0.39900
484.60772	1142.72000	-0.40000
484.87273	1143.30000	-0.41200
485.14775	1142.75000	-0.41100
485.41276	1143.18000	-0.41500
485.68778	1142.60000	-0.41600
485.95280	1143.20000	-0.41900
486.22681	1143.05000	-0.42600
486.49283	1143.29000	-0.42900
486.76684	1142.75000	-0.43300
487.03286	1143.10000	-0.43500
487.30687	1142.80000	-0.44000
487.57289	1143.31000	-0.44500
487.84690	1143.05000	-0.44700
488.11292	1143.36000	-0.45200
488.38693	1142.86000	-0.45200
488.65295	1143.08000	-0.45900
488.92696	1142.50000	-0.46100
489.19298	1142.75000	-0.46400
489.46700	1142.30000	-0.47000
489.73301	1142.59000	-0.47300
490.00703	1142.23000	-0.47900
490.27304	1142.57000	-0.48300
490.54706	1141.85000	-0.48700
490.81307	1142.01000	-0.49000
491.08709	1141.42000	-0.49400
491.35310	1141.74000	-0.49700
491.62812	1141.10000	-0.50100
491.89213	1141.64000	-0.50300
492.16715	1141.14000	-0.50800
492.43217	1141.60000	-0.51500
492.70718	1141.18000	-0.51500
492.97220	1141.68000	-0.52200
493.24721	1141.44000	-0.52900
493.51223	1141.94000	-0.52600
493.78724	1141.57000	-0.53100
494.05226	1141.94000	-0.53500
494.32727	1141.56000	-0.53700
494.59229	1141.85000	-0.54000
494.86730	1141.59000	-0.54400
495.13432	1142.08000	-0.54900
495.41234	1142.31000	-0.55100
495.68735	1142.03000	-0.55400
495.95237	1142.28000	-0.55900
496.22738	1141.84000	-0.56800
496.49240	1142.22000	-0.57200
496.76741	1141.66000	-0.57400
497.03243	1141.96000	-0.57500
497.30745	1141.44000	-0.58100
497.57246	1141.90000	-0.58100
497.84748	1141.50000	-0.58700
498.11249	1141.88000	-0.59100
498.38751	1141.46000	-0.59700
498.65252	1141.71000	-0.59800
498.92754	1141.33000	-0.60200
499.19255	1141.73000	-0.60600
499.46757	1141.52000	-0.61000
499.73258	1141.84000	-0.61200
500.00760	1141.60000	-0.61900
500.27461	1142.07000	-0.62200
500.55263	1142.29000	-0.62300
500.82765	1141.74000	-0.62700
501.09466	1141.92000	-0.63100
501.37268	1142.22000	-0.63700
501.64769	1141.66000	-0.64000
501.91471	1141.61000	-0.64000
502.19272	1141.65000	-0.64800
502.46674	1141.18000	-0.65100
502.73476	1141.59000	-0.65500
503.01477	1141.81000	-0.66100
503.29279	1141.98000	-0.66200
503.56680	1141.52000	-0.66800
503.83282	1141.91000	-0.66900
504.10683	1141.51000	-0.67600
504.37285	1142.03000	-0.67900
504.64686	1141.89000	-0.68300
504.91288	1142.47000	-0.68300
505.18790	1142.11000	-0.68900
505.45391	1142.24000	-0.69400
505.73393	1142.28000	-0.69500
506.01394	1142.28000	-0.69900
506.29296	1142.28000	-0.70500
506.56797	1141.51000	-0.70700
506.83399	1141.72000	-0.71400
507.11401	1141.86000	-0.71400
507.39202	1142.04000	-0.72100
507.66704	1141.48000	-0.72400
507.93205	1141.85000	-0.72700
508.20707	1141.26000	-0.73400
508.47208	1141.39000	-0.73600
508.74710	1140.88000	-0.73700
509.01211	1141.29000	-0.74300
509.28713	1140.97000	-0.74700
509.55215	1141.46000	-0.75400
509.82716	1140.96000	-0.75600
510.09218	1141.25000	-0.75800
510.36719	1140.79000	-0.76000
510.63221	1141.18000	-0.76000
510.90722	1140.58000	-0.76900
511.17224	1141.01000	-0.77300
511.44725	1140.68000	-0.77500
511.71227	1141.06000	-0.78000
511.98728	1140.67000	-0.78300
512.25230	1140.99000	-0.78300
512.52732	1140.47000	-0.79100
512.79233	1140.80000	-0.79600
513.06735	1140.14000	-0.80300
513.33236	1140.61000	-0.80300
513.60738	1140.09000	-0.80800
513.87239	1140.40000	-0.80700
514.14741	1139.80000	-0.81400
514.41242	1140.19000	-0.81800
514.68744	1139.73000	-0.82500
514.95245	1140.11000	-0.82800
515.22647	1139.53000	-0.82900
515.49249	1140.13000	-0.83100
515.76650	1140.01000	-0.83500
516.03252	1140.69000	-0.84100
516.30753	1140.30000	-0.84500
516.57355	1140.84000	-0.84800
516.85256	1141.12000	-0.85200
517.12758	1140.82000	-0.85700
517.39259	1141.35000	-0.85900
517.66661	1140.96000	-0.86500
517.93362	1141.40000	-0.86700
518.21264	1141.70000	-0.87000
518.48766	1141.02000	-0.87500
518.75367	1141.58000	-0.87500
519.03269	1142.06000	-0.88200
519.30770	1141.69000	-0.88600
519.57372	1142.31000	-0.89000
519.85373	1142.59000	-0.89400
520.13175	1142.66000	-0.89800
520.40677	1142.07000	-0.90200
520.67378	1142.60000	-0.90700
520.95380	1142.75000	-0.90800
521.23281	1142.83000	-0.91200
521.50783	1142.20000	-0.91700
521.77284	1142.56000	-0.92300
522.04786	1142.19000	-0.92400
522.31187	1142.70000	-0.93000
522.58689	1142.52000	-0.93300
522.85391	1142.89000	-0.93400
523.13392	1143.34000	-0.93900
523.41394	1143.47000	-0.94300
523.69395	1143.58000	-0.94500
523.97397	1143.56000	-0.95200
524.25199	1143.51000	-0.95000
524.52700	1143.37000	-0.95900
524.79402	1143.68000	-0.96400
525.07403	1143.64000	-0.96700
525.35405	1143.95000	-0.96800
525.63406	1144.20000	-0.97300
525.91408	1144.23000	-0.98000
526.19410	1144.17000	-0.98000
526.47211	1144.36000	-0.98200
526.74713	1143.64000	-0.99100
527.01414	1143.91000	-0.99100
527.29416	1144.42000	-0.99800
527.57418	1144.53000	-1.00300
527.85419	1144.61000	-1.00500
528.13421	1144.66000	-1.00800
528.41422	1144.65000	-1.01300
528.69424	1144.77000	-1.01700
528.97426	1145.11000	-1.01600
529.25427	1145.57000	-1.02700
529.53429	1145.20000	-1.02700
529.81430	1145.24000	-1.03000
530.09432	1145.42000	-1.03600
530.37234	1145.52000	-1.03700
530.64635	1145.23000	-1.04100
530.91337	1145.59000	-1.04500
531.19338	1145.85000	-1.04800
531.47240	1146.09000	-1.05600
531.74641	1145.61000	-1.06000
532.01343	1145.67000	-1.06100
532.29345	1145.80000	-1.06200
532.57246	1145.94000	-1.07100
532.84748	1145.32000	-1.07300
533.11349	1145.89000	-1.07300
533.39251	1146.40000	-1.08200
533.66752	1145.80000	-1.08600
533.93254	1145.98000	-1.08300
534.20756	1145.47000	-1.09200
534.47357	1145.87000	-1.09500
534.75359	1146.13000	-1.09700
535.03360	1146.36000	-1.10200
535.31362	1146.46000	-1.10700
535.59363	1146.80000	-1.10900
535.87365	1147.08000	-1.11300
536.15367	1147.35000	-1.11800
536.43368	1147.42000	-1.12400
536.71370	1147.32000	-1.12600
536.99371	1147.23000	-1.13100
537.27373	1147.28000	-1.13500
537.55375	1147.31000	-1.14000
537.83376	1147.27000	-1.14000
538.11378	1147.28000	-1.14600
538.39379	1147.11000	-1.15200
538.67381	1147.08000	-1.15100
538.95383	1147.06000	-1.15600
539.23384	1147.09000	-1.16200
539.51186	1147.02000	-1.16300
539.78687	1146.29000	-1.17000
540.05389	1146.59000	-1.17500
540.33391	1146.69000	-1.17700
540.61192	1146.77000	-1.17800
540.88694	1146.03000	-1.18300
541.15195	1146.28000	-1.18700
541.42697	1145.58000	-1.19200
541.69198	1146.04000	-1.19300
541.96700	1145.66000	-1.20000
542.23201	1146.03000	-1.19900
542.50703	1145.47000	-1.21000
542.77204	1145.97000	-1.20900
543.04706	1145.40000	-1.21300
543.31208	1145.74000	-1.21700
543.58709	1145.16000	-1.22200
543.85211	1145.60000	-1.22200
544.12712	1145.31000	-1.22700
544.39114	1145.61000	-1.23300
544.66715	1145.11000	-1.23500
544.93217	1145.71000	-1.23800
545.20718	1145.28000	-1.24400
545.47220	1145.42000	-1.24800
545.74622	1144.81000	-1.25100
546.01223	1145.18000	-1.25600
546.28725	1144.69000	-1.25600
546.55226	1145.20000	-1.26300
546.82728	1144.80000	-1.26400
547.09229	1145.13000	-1.26700
547.36631	1144.51000	-1.27100
547.63232	1144.74000	-1.27500
547.90734	1144.06000	-1.27900
548.17135	1144.59000	-1.28500
548.44737	1144.50000	-1.28400
548.71238	1144.87000	-1.29000
548.98640	1144.55000	-1.29200
549.25242	1144.97000	-1.29600
549.52643	1144.62000	-1.30100
549.79045	1145.00000	-1.30300
550.06646	1144.61000	-1.30600
550.33048	1144.86000	-1.31000
550.60649	1144.28000	-1.31800
550.87251	1144.70000	-1.31800
551.14652	1144.14000	-1.32300
551.41154	1144.52000	-1.32900
551.68756	1143.72000	-1.32700
551.95357	1144.11000	-1.33400
552.23159	1144.52000	-1.33800
552.50660	1144.20000	-1.34000
552.77162	1144.60000	-1.34200
553.04663	1144.06000	-1.34700
553.31165	1144.55000	-1.35200
553.58666	1144.27000	-1.35400
553.85168	1144.65000	-1.35700
554.12669	1144.01000	-1.36000
554.39171	1144.12000	-1.36600
554.66673	1143.42000	-1.36900
554.93174	1143.71000	-1.37600
555.20676	1143.21000	-1.37800
555.47177	1143.41000	-1.38200
555.74679	1143.01000	-1.38300
556.01180	1143.21000	-1.38400
556.28682	1142.66000	-1.39100
556.55183	1142.91000	-1.39800
556.82685	1142.21000	-1.39600
557.09186	1142.59000	-1.40100
557.36688	1142.36000	-1.40500
557.63190	1142.91000	-1.40800
557.90591	1142.55000	-1.41300
558.17193	1143.06000	-1.41200
558.44694	1142.68000	-1.42300
558.71196	1142.80000	-1.42000
558.98697	1141.96000	-1.42800
559.25199	1142.04000	-1.42900
559.52700	1141.72000	-1.43100
559.79202	1142.13000	-1.43900
560.06703	1141.65000	-1.44000
560.33205	1141.76000	-1.44400
560.60706	1141.35000	-1.44700
560.87208	1141.61000	-1.45100
561.14710	1141.02000	-1.45400
561.41211	1141.27000	-1.45800
561.68713	1140.62000	-1.46000
561.95214	1140.78000	-1.46700
562.22716	1140.35000	-1.46800
562.49317	1140.78000	-1.47100
562.77219	1141.18000	-1.47500
563.04720	1140.69000	-1.47800
563.31022	1141.07000	-1.47800
563.58724	1140.72000	-1.48500
563.85225	1141.34000	-1.48900
564.12627	1141.12000	-1.49300
564.39228	1141.59000	-1.49400
564.66630	1141.10000	-1.49800
564.93031	1141.64000	-1.50000
565.20633	1141.52000	-1.50300
565.47034	1141.89000	-1.50900
565.74636	1141.29000	-1.51000
566.00937	1141.00000	-1.51700
566.26939	1140.88000	-1.52100
566.52940	1140.88000	-1.51700
566.78942	1141.04000	-1.52500
567.05143	1141.90000	-1.52900
567.32645	1141.74000	-1.52800
567.59346	1142.48000	-1.53300
567.87148	1142.98000	-1.53400
568.14650	1142.47000	-1.54000
568.40951	1142.14000	-1.54400
568.66953	1141.89000	-1.54700
568.92954	1141.81000	-1.55100
569.18956	1141.75000	-1.55200
569.44957	1141.42000	-1.55200
569.70959	1141.53000	-1.55900
569.97160	1142.48000	-1.56500
570.24662	1142.29000	-1.56600
570.50963	1143.15000	-1.56800
570.78665	1143.19000	-1.57100
571.04966	1144.00000	-1.57200
571.32668	1143.80000	-1.57600
571.58969	1144.32000	-1.58100
571.86671	1144.25000	-1.58200
572.13172	1144.74000	-1.58600
572.40674	1144.36000	-1.58700
572.66976	1144.75000	-1.59000
572.94577	1144.34000	-1.59400
573.20979	1144.86000	-1.59800
573.48680	1144.25000	-1.60200
573.75182	1144.64000	-1.60300
574.02583	1144.20000	-1.60600
574.28985	1144.61000	-1.61200
574.56586	1144.22000	-1.61500
574.83288	1144.68000	-1.61600
575.11089	1144.89000	-1.62100
575.38591	1144.29000	-1.62200
575.65193	1144.62000	-1.62600
575.92594	1143.85000	-1.62900
576.19296	1144.10000	-1.63300
576.47097	1144.24000	-1.63500
576.74599	1143.53000	-1.63900
577.01200	1143.97000	-1.64100
577.28602	1143.79000	-1.64100
577.55003	1144.50000	-1.64600
577.82605	1144.22000	-1.64800
578.09007	1144.61000	-1.64900
578.36608	1144.08000	-1.65300
578.63010	1144.58000	-1.65800
578.90711	1144.22000	-1.65800
579.17013	1144.35000	-1.66100
579.44614	1143.65000	-1.66300
579.71016	1144.19000	-1.66900
579.98617	1143.93000	-1.66700
580.25019	1144.62000	-1.67000
580.52720	1143.75000	-1.67600
580.79022	1144.30000	-1.67700
581.06624	1144.02000	-1.67900
581.33025	1144.69000	-1.68300
581.60627	1144.09000	-1.68500
581.87028	1144.74000	-1.68700
582.14630	1144.23000	-1.68800
582.41031	1145.01000	-1.69200
582.68633	1144.68000	-1.69400
582.95034	1145.38000	-1.69700
583.22636	1145.15000	-1.69700
583.48937	1144.96000	-1.70200
583.74939	1144.91000	-1.70500
584.00940	1145.00000	-1.70700
584.26942	1145.75000	-1.70600
584.54643	1145.42000	-1.71100
584.80945	1146.09000	-1.71000
585.08647	1145.76000	-1.71400
585.34948	1146.34000	-1.71500
585.62650	1146.14000	-1.71700
585.88951	1146.67000	-1.71700
586.16653	1146.02000	-1.72500
586.42954	1146.29000	-1.72700
586.70656	1145.83000	-1.72700
586.96957	1146.35000	-1.72900
587.24559	1145.91000	-1.73100
587.50960	1146.52000	-1.73200
587.78662	1146.02000	-1.73600
588.04963	1146.39000	-1.73500
588.32565	1145.94000	-1.73900
588.58967	1146.32000	-1.73900
588.86568	1145.49000	-1.73900
589.12970	1146.00000	-1.74400
589.40571	1145.51000	-1.74600
589.66973	1146.22000	-1.74700
589.94574	1146.02000	-1.74800
590.20976	1146.60000	-1.75100
590.48577	1146.26000	-1.75300
590.74979	1146.64000	-1.75300
591.02580	1146.16000	-1.75600
591.29282	1146.62000	-1.75600
591.57084	1146.87000	-1.75600
591.84585	1146.39000	-1.76100
592.10987	1146.60000	-1.76100
592.38588	1146.07000	-1.76400
592.65290	1146.25000	-1.76400
592.93091	1146.37000	-1.76400
593.20593	1145.68000	-1.76600
593.46994	1146.04000	-1.76900
593.74696	1145.28000	-1.77100
594.00998	1145.68000	-1.77300
594.28599	1145.29000	-1.77200
594.55001	1145.69000	-1.77100
594.82602	1145.37000	-1.77400
595.09004	1145.94000	-1.77500
595.36605	1145.54000	-1.77800
595.63007	1146.15000	-1.77400
595.90608	1145.63000	-1.77500
596.17310	1146.00000	-1.77700
596.45112	1146.18000	-1.78100
596.72613	1145.42000	-1.77700
596.99315	1145.59000	-1.77900
597.27316	1145.75000	-1.78400
597.55318	1145.84000	-1.78100
597.83119	1145.90000	-1.78300
598.10621	1145.34000	-1.78200
598.37122	1145.80000	-1.78300
598.64624	1145.24000	-1.78700
598.91226	1145.61000	-1.78800
599.18627	1145.12000	-1.78300
599.45229	1145.40000	-1.78600
599.73130	1145.64000	-1.78900
600.00632	1145.15000	-1.78700
600.27033	1145.66000	-1.78600
