I [mA]	0.100000
H [kOe]	20.097000
Time [s]	V_xx [mV]	V_xy [mV]
0.00000	1147.52000	-1.82200
0.28102	1145.74000	-1.82200
0.54503	1143.96000	-1.82100
0.82105	1143.40000	-1.82100
1.29807	1141.26000	-1.82300
1.56509	1140.45000	-1.82100
1.84110	1140.81000	-1.82200
2.10512	1140.89000	-1.82300
2.38114	1141.05000	-1.82400
2.64415	1141.24000	-1.82000
2.92217	1142.07000	-1.82300
3.20018	1141.91000	-1.82100
3.46520	1141.38000	-1.82100
3.74121	1142.89000	-1.82200
4.02123	1142.51000	-1.81900
4.29925	1142.69000	-1.82000
4.56526	1142.37000	-1.81900
4.84128	1143.05000	-1.82000
5.11929	1143.08000	-1.82200
5.38531	1142.47000	-1.82100
5.66132	1143.04000	-1.82000
5.93934	1143.30000	-1.81700
6.20536	1142.69000	-1.81800
6.48137	1143.23000	-1.82000
6.76139	1143.60000	-1.81700
7.03940	1143.44000	-1.81600
7.30542	1142.87000	-1.81800
7.58143	1143.16000	-1.81700
7.85945	1143.33000	-1.81500
8.12546	1142.60000	-1.81500
8.40148	1143.24000	-1.81200
8.67950	1143.67000	-1.81100
8.94551	1143.18000	-1.80800
9.22153	1143.70000	-1.80700
9.49954	1144.06000	-1.81000
9.76556	1143.50000	-1.80600
10.04157	1144.16000	-1.80600
10.31959	1144.64000	-1.80500
10.58561	1144.07000	-1.80200
10.86162	1144.61000	-1.80400
11.13964	1145.05000	-1.80200
11.40565	1144.62000	-1.80000
11.68067	1145.00000	-1.79700
11.94368	1144.59000	-1.79900
12.21970	1145.12000	-1.79800
12.48471	1144.44000	-1.79800
12.75973	1144.89000	-1.79500
13.02474	1144.28000	-1.79200
13.30176	1144.91000	-1.79300
13.57978	1145.22000	-1.78700
13.84479	1144.53000	-1.78700
14.12081	1145.04000	-1.78700
14.38382	1144.67000	-1.78600
14.65984	1145.39000	-1.78400
14.92485	1145.13000	-1.78000
15.20087	1145.95000	-1.78000
15.46488	1145.56000	-1.77600
15.74090	1146.02000	-1.77500
16.00391	1145.70000	-1.77300
16.27993	1146.32000	-1.77500
16.54495	1145.80000	-1.76800
16.82096	1146.31000	-1.76800
17.08398	1145.74000	-1.76600
17.34899	1146.18000	-1.76300
17.62401	1145.74000	-1.76100
17.89002	1146.33000	-1.76100
18.16304	1146.02000	-1.75900
18.42905	1146.62000	-1.75800
18.70307	1146.43000	-1.75300
18.96908	1146.87000	-1.75200
19.24310	1146.49000	-1.75000
19.50912	1146.85000	-1.75000
19.78313	1146.35000	-1.74800
20.04915	1146.73000	-1.74500
20.32316	1146.31000	-1.74200
20.58918	1146.56000	-1.73800
20.86319	1146.05000	-1.73700
21.12921	1146.27000	-1.73000
21.40322	1145.75000	-1.73200
21.66924	1146.05000	-1.72900
21.94325	1145.81000	-1.72700
22.20927	1146.33000	-1.72500
22.48329	1146.00000	-1.72100
22.74930	1146.30000	-1.72000
23.02332	1145.70000	-1.71400
23.28933	1146.00000	-1.71400
23.56335	1145.62000	-1.71400
23.82936	1145.86000	-1.71300
24.10338	1145.40000	-1.70600
24.36939	1145.68000	-1.70500
24.64341	1145.34000	-1.70200
24.90942	1145.55000	-1.69700
25.18344	1145.13000	-1.69700
25.44945	1145.23000	-1.69700
25.72347	1144.61000	-1.69100
25.98949	1144.84000	-1.68600
26.26350	1144.66000	-1.68400
26.52952	1145.02000	-1.68300
26.80353	1144.58000	-1.68100
27.06955	1144.65000	-1.67900
27.34356	1143.84000	-1.67200
27.60958	1144.04000	-1.67500
27.88359	1143.81000	-1.67000
28.14961	1144.22000	-1.66700
28.42363	1143.80000	-1.66400
28.68964	1143.93000	-1.66000
28.96366	1143.19000	-1.65500
29.22967	1143.40000	-1.65500
29.50369	1143.12000	-1.65200
29.76970	1143.41000	-1.64800
30.04372	1142.98000	-1.64500
30.30973	1143.22000	-1.64200
30.58375	1142.92000	-1.63800
30.84976	1143.08000	-1.63900
31.12378	1142.54000	-1.63500
31.38979	1142.75000	-1.63200
31.66381	1142.22000	-1.62400
31.92883	1142.49000	-1.62300
32.20384	1142.12000	-1.62200
32.46986	1142.49000	-1.61900
32.74387	1142.13000	-1.61500
33.00989	1142.20000	-1.61300
33.28390	1141.81000	-1.60900
33.55092	1142.24000	-1.60600
33.82894	1142.51000	-1.60400
34.10395	1142.12000	-1.59900
34.37097	1142.31000	-1.59900
34.64898	1142.56000	-1.59400
34.92400	1142.13000	-1.59100
35.18901	1142.36000	-1.58800
35.46403	1141.94000	-1.58300
35.72904	1142.14000	-1.58200
36.00306	1141.66000	-1.57700
36.26907	1142.05000	-1.57100
36.54309	1141.60000	-1.56800
36.80911	1141.91000	-1.56500
37.08312	1141.28000	-1.56400
37.34914	1141.59000	-1.55800
37.62315	1140.86000	-1.55700
37.88917	1141.25000	-1.55000
38.16318	1141.03000	-1.55200
38.42920	1141.61000	-1.54800
38.70321	1141.37000	-1.54300
38.96923	1141.88000	-1.53900
39.24324	1141.22000	-1.53800
39.51126	1141.50000	-1.53500
39.79128	1141.59000	-1.53200
40.06929	1141.95000	-1.52700
40.34331	1141.47000	-1.52200
40.60932	1141.79000	-1.51700
40.88334	1141.13000	-1.51800
41.14935	1141.48000	-1.51500
41.42337	1140.95000	-1.50700
41.68938	1141.45000	-1.50400
41.96340	1141.03000	-1.50400
42.22941	1141.30000	-1.49800
42.50343	1140.75000	-1.49500
42.76945	1141.62000	-1.49100
43.04346	1141.06000	-1.49100
43.30948	1141.54000	-1.48600
43.58349	1140.94000	-1.48400
43.84951	1141.15000	-1.47600
44.12352	1141.27000	-1.47500
44.38954	1141.52000	-1.47000
44.66355	1140.89000	-1.46900
44.92957	1141.82000	-1.46400
45.20359	1141.16000	-1.46100
45.46960	1141.36000	-1.45800
45.74362	1141.60000	-1.45300
46.00963	1142.69000	-1.44900
46.28365	1142.22000	-1.44400
46.54966	1142.30000	-1.44100
46.82368	1142.21000	-1.43600
47.08969	1142.44000	-1.43600
47.36371	1142.21000	-1.43200
47.62972	1142.77000	-1.42900
47.90374	1142.14000	-1.42600
48.16975	1142.31000	-1.42000
48.44377	1141.61000	-1.41800
48.71079	1142.11000	-1.41300
48.98880	1142.48000	-1.41000
49.26382	1141.80000	-1.40500
49.53083	1142.03000	-1.40200
49.80885	1142.25000	-1.39800
50.08386	1141.79000	-1.39700
50.34888	1142.09000	-1.39100
50.62390	1141.69000	-1.39100
50.88891	1142.04000	-1.38200
51.16293	1141.78000	-1.37900
51.43094	1142.18000	-1.37800
51.70896	1142.23000	-1.37400
51.98297	1141.56000	-1.37100
52.24899	1141.91000	-1.36300
52.52500	1141.45000	-1.36300
52.80102	1141.79000	-1.36000
53.06904	1142.22000	-1.35700
53.34305	1141.73000	-1.35100
53.60907	1142.01000	-1.34600
53.88408	1141.54000	-1.34500
54.14910	1141.85000	-1.34200
54.42311	1141.34000	-1.33700
54.69013	1141.59000	-1.33300
54.96314	1140.99000	-1.32900
55.23116	1141.43000	-1.32600
55.50917	1141.76000	-1.32000
55.78319	1140.93000	-1.31900
56.05121	1141.14000	-1.31800
56.32922	1141.56000	-1.31300
56.60324	1140.61000	-1.31100
56.87025	1140.65000	-1.30400
57.14327	1139.82000	-1.30000
57.40828	1140.04000	-1.29400
57.68430	1139.59000	-1.29300
57.94931	1140.10000	-1.29100
58.22433	1139.84000	-1.28300
58.48835	1140.44000	-1.28200
58.76436	1139.96000	-1.27800
59.02938	1140.57000	-1.27100
59.30439	1140.29000	-1.27000
59.56941	1140.79000	-1.26800
59.84442	1140.24000	-1.26100
60.10944	1140.77000	-1.25800
60.38345	1140.41000	-1.25300
60.64847	1140.74000	-1.25200
60.92448	1140.44000	-1.24800
61.18850	1140.81000	-1.24200
61.46251	1140.46000	-1.24200
61.72953	1140.79000	-1.23800
62.00455	1140.46000	-1.23100
62.26956	1140.95000	-1.22600
62.54458	1140.62000	-1.22200
62.80859	1140.94000	-1.22300
63.08461	1140.66000	-1.22000
63.34862	1141.13000	-1.21500
63.62464	1140.83000	-1.21000
63.88865	1141.31000	-1.20800
64.16467	1140.95000	-1.20100
64.42868	1141.26000	-1.19700
64.70470	1140.83000	-1.19600
64.96872	1141.21000	-1.19200
65.24473	1140.56000	-1.18800
65.51075	1140.96000	-1.18600
65.78876	1141.29000	-1.17700
66.06478	1140.87000	-1.17500
66.34079	1141.40000	-1.17600
66.60881	1141.86000	-1.16800
66.88283	1141.46000	-1.16500
67.15084	1141.70000	-1.15900
67.42886	1141.97000	-1.15700
67.70287	1141.45000	-1.15200
67.97089	1141.89000	-1.15300
68.25090	1142.22000	-1.14800
68.52892	1142.62000	-1.14100
68.80294	1142.27000	-1.13800
69.06895	1142.52000	-1.13400
69.34297	1141.81000	-1.13300
69.61098	1142.13000	-1.12900
69.89000	1142.48000	-1.12600
70.16301	1141.84000	-1.12000
70.42903	1142.31000	-1.11500
70.70304	1141.88000	-1.11300
70.96906	1142.43000	-1.10600
71.24407	1142.21000	-1.10400
71.50909	1142.69000	-1.09800
71.78311	1142.23000	-1.09800
72.04912	1142.51000	-1.09200
72.32414	1142.10000	-1.08600
72.59015	1142.38000	-1.08500
72.86917	1142.67000	-1.08400
73.14318	1142.14000	-1.08000
73.41020	1142.69000	-1.07200
73.69022	1142.96000	-1.06700
73.97023	1143.22000	-1.06600
74.25025	1143.28000	-1.06200
74.52926	1143.38000	-1.06000
74.80428	1142.56000	-1.05600
75.06829	1143.00000	-1.05200
75.34231	1142.65000	-1.04900
75.60932	1143.29000	-1.04300
75.88334	1142.95000	-1.03800
76.14836	1143.56000	-1.03600
76.42237	1143.44000	-1.03000
76.68939	1143.91000	-1.02800
76.96440	1143.36000	-1.02000
77.22942	1143.81000	-1.02300
77.50443	1143.25000	-1.01700
77.76845	1143.71000	-1.01400
78.04246	1142.98000	-1.00700
78.30848	1143.30000	-1.00300
78.58449	1142.76000	-0.99800
78.84851	1143.30000	-0.99600
79.12453	1142.95000	-0.99300
79.38854	1143.64000	-0.99100
79.66456	1143.37000	-0.98500
79.92857	1143.79000	-0.98000
80.20259	1143.38000	-0.97700
80.46860	1144.04000	-0.97200
80.74462	1143.87000	-0.97300
81.01063	1144.51000	-0.96700
81.28865	1144.93000	-0.96200
81.56266	1144.60000	-0.96100
81.82868	1145.01000	-0.95600
82.10370	1144.49000	-0.94900
82.36871	1144.92000	-0.94700
82.64373	1144.32000	-0.94500
82.90874	1144.82000	-0.93900
83.18376	1144.10000	-0.93300
83.44877	1144.51000	-0.92900
83.72379	1143.83000	-0.93000
83.98880	1144.47000	-0.92500
84.26382	1144.11000	-0.92100
84.53083	1144.78000	-0.92000
84.80885	1145.31000	-0.91400
85.08387	1145.10000	-0.90800
85.34888	1145.67000	-0.90700
85.62390	1145.52000	-0.89900
85.88891	1146.09000	-0.89700
86.16493	1145.71000	-0.89800
86.44094	1146.15000	-0.89200
86.70996	1146.49000	-0.88500
86.98898	1146.68000	-0.88300
87.26299	1146.11000	-0.88000
87.52901	1146.57000	-0.87900
87.80302	1146.03000	-0.87100
88.07004	1146.35000	-0.87200
88.34905	1146.65000	-0.86300
88.62307	1146.01000	-0.85700
88.88908	1146.23000	-0.85500
89.16410	1145.63000	-0.85200
89.43012	1146.01000	-0.84900
89.71013	1146.22000	-0.84300
89.99015	1146.33000	-0.84200
90.27016	1146.42000	-0.83700
90.54918	1146.48000	-0.82900
90.82219	1145.74000	-0.83000
91.08821	1146.12000	-0.82200
91.36423	1145.65000	-0.82600
91.62824	1146.20000	-0.81900
91.90226	1145.74000	-0.81500
92.17027	1146.11000	-0.81200
92.44829	1146.44000	-0.80500
92.72230	1145.98000	-0.80200
92.99032	1146.49000	-0.79600
93.26833	1146.84000	-0.79300
93.54435	1146.32000	-0.79100
93.81037	1146.67000	-0.78800
94.08838	1147.11000	-0.78300
94.36440	1146.50000	-0.77700
94.62841	1146.78000	-0.77600
94.90243	1146.12000	-0.77100
95.16844	1146.56000	-0.76600
95.44246	1146.23000	-0.76000
95.70847	1146.66000	-0.76000
95.98449	1146.50000	-0.75600
96.24850	1146.91000	-0.75200
96.52352	1146.38000	-0.74900
96.78854	1146.68000	-0.74100
97.06255	1146.18000	-0.73900
97.32957	1146.41000	-0.73600
97.60358	1145.80000	-0.73300
97.86860	1146.10000	-0.73000
98.14461	1145.51000	-0.72800
98.40963	1146.10000	-0.71900
98.68264	1145.88000	-0.72000
98.94866	1146.27000	-0.71300
99.22468	1145.79000	-0.71200
99.48869	1145.88000	-0.70700
99.76371	1145.37000	-0.70100
100.03072	1145.81000	-0.69800
100.30874	1146.08000	-0.69100
100.58375	1145.47000	-0.69200
100.85077	1145.91000	-0.68300
101.12878	1146.31000	-0.68400
101.40380	1145.75000	-0.67900
101.67081	1146.02000	-0.67400
101.94883	1146.19000	-0.66800
102.22385	1145.84000	-0.66600
102.49086	1146.40000	-0.66300
102.76988	1146.83000	-0.66000
103.04989	1146.97000	-0.65600
103.32891	1146.88000	-0.64800
103.60193	1146.08000	-0.64600
103.86994	1146.18000	-0.64500
104.14896	1146.23000	-0.64100
104.42397	1145.55000	-0.63900
104.68999	1145.70000	-0.63200
104.96900	1145.72000	-0.63000
105.24402	1144.89000	-0.62400
105.51103	1145.19000	-0.62200
105.79005	1145.52000	-0.61400
106.07007	1145.63000	-0.61400
106.34808	1145.66000	-0.60900
106.62410	1145.12000	-0.60600
106.89011	1145.26000	-0.59800
107.17013	1145.45000	-0.59600
107.45015	1145.52000	-0.59500
107.73016	1145.57000	-0.59100
108.01018	1145.53000	-0.58700
108.29019	1145.43000	-0.58100
108.57021	1145.33000	-0.58000
108.85023	1145.24000	-0.57500
109.13024	1145.26000	-0.57100
109.40826	1145.33000	-0.56700
109.68427	1144.91000	-0.56300
109.95029	1145.04000	-0.55700
110.23030	1144.99000	-0.55600
110.51032	1144.95000	-0.55100
110.79034	1144.99000	-0.54900
111.06935	1144.90000	-0.54300
111.34237	1144.19000	-0.54000
111.61038	1144.25000	-0.53300
111.88940	1144.16000	-0.53000
112.16441	1143.38000	-0.52900
112.43043	1143.72000	-0.52400
112.71045	1143.94000	-0.52000
112.98946	1144.22000	-0.51500
113.26448	1143.49000	-0.51400
113.53049	1143.75000	-0.50700
113.81051	1143.91000	-0.50600
114.09053	1144.04000	-0.50100
114.36954	1144.33000	-0.49600
114.64956	1144.50000	-0.49300
114.92857	1144.55000	-0.48600
115.20259	1143.92000	-0.48400
115.47060	1144.14000	-0.48300
115.74962	1144.27000	-0.47800
116.02764	1144.30000	-0.47600
116.30365	1143.60000	-0.46800
116.57067	1143.91000	-0.46400
116.84768	1144.12000	-0.46100
117.12270	1143.63000	-0.45700
117.39071	1144.02000	-0.45400
117.66773	1144.08000	-0.45300
117.94375	1143.63000	-0.44800
118.21076	1143.97000	-0.43900
118.48778	1144.09000	-0.43800
118.76179	1143.52000	-0.43300
119.02981	1143.90000	-0.43300
119.30782	1144.14000	-0.42700
119.58284	1143.53000	-0.42400
119.84985	1143.93000	-0.41800
120.12787	1144.19000	-0.41600
120.40289	1143.72000	-0.41200
120.67090	1143.87000	-0.40800
120.94992	1143.92000	-0.40400
121.22993	1143.85000	-0.40400
121.50995	1143.83000	-0.39500
121.78997	1143.82000	-0.39400
122.06998	1143.69000	-0.38800
122.35000	1143.56000	-0.38600
122.63001	1143.50000	-0.38000
122.91003	1143.49000	-0.37500
123.19005	1143.42000	-0.37200
123.47006	1143.29000	-0.36800
123.75008	1143.06000	-0.36500
124.03009	1142.93000	-0.36100
124.31011	1142.88000	-0.35700
124.59013	1142.83000	-0.35500
124.87014	1142.96000	-0.34600
125.15016	1142.92000	-0.34500
125.43017	1143.00000	-0.33800
125.71019	1142.99000	-0.33800
125.99021	1143.02000	-0.33400
126.27022	1142.98000	-0.32700
126.54924	1143.02000	-0.32500
126.82225	1142.53000	-0.32100
127.09027	1142.81000	-0.31700
127.37028	1142.98000	-0.31600
127.65030	1142.98000	-0.31000
127.93032	1143.05000	-0.30600
128.21033	1143.30000	-0.30200
128.48935	1143.44000	-0.29900
128.76936	1143.39000	-0.29200
129.04938	1143.36000	-0.29200
129.32940	1143.29000	-0.28400
129.60941	1143.16000	-0.28300
129.88943	1143.05000	-0.28000
130.16945	1142.99000	-0.27200
130.44746	1142.98000	-0.26700
130.72248	1142.40000	-0.26700
130.99049	1142.65000	-0.26300
131.26951	1142.76000	-0.25800
131.54952	1142.77000	-0.25300
131.82954	1142.62000	-0.24800
132.10956	1142.61000	-0.24900
132.38957	1142.59000	-0.24200
132.66959	1142.48000	-0.23800
132.94960	1142.43000	-0.23400
133.22962	1142.39000	-0.23000
133.50764	1142.46000	-0.22800
133.78265	1141.44000	-0.22600
134.05067	1141.69000	-0.21800
134.32968	1141.72000	-0.21700
134.60970	1141.87000	-0.21500
134.88972	1141.82000	-0.20800
135.16973	1141.87000	-0.20400
135.44975	1141.90000	-0.19800
135.72976	1141.93000	-0.19500
136.00978	1142.23000	-0.19500
136.28979	1142.38000	-0.18600
136.56981	1142.47000	-0.18200
136.84983	1142.49000	-0.17900
137.12984	1142.65000	-0.17500
137.40986	1142.85000	-0.17600
137.68988	1142.94000	-0.17000
137.96989	1142.84000	-0.16500
138.24991	1142.86000	-0.16000
138.52992	1143.00000	-0.15500
138.80994	1143.00000	-0.15300
139.08995	1142.96000	-0.14600
139.36997	1142.87000	-0.14500
139.64999	1142.89000	-0.14400
139.93000	1143.02000	-0.13900
140.21002	1143.14000	-0.13300
140.49004	1142.98000	-0.13100
140.77005	1142.87000	-0.12500
141.04907	1142.87000	-0.12100
141.32908	1142.82000	-0.11700
141.60210	1141.88000	-0.11300
141.87111	1141.98000	-0.11000
142.14913	1142.08000	-0.10800
142.42915	1142.23000	-0.09900
142.70916	1142.39000	-0.09500
142.98918	1142.39000	-0.09000
143.26919	1142.36000	-0.09000
143.54921	1142.41000	-0.08500
143.82923	1142.36000	-0.08200
144.10924	1142.34000	-0.07700
144.38926	1142.32000	-0.07400
144.66927	1142.12000	-0.06900
144.94929	1142.07000	-0.06600
145.22931	1141.96000	-0.06200
145.50932	1141.68000	-0.05600
145.78934	1141.69000	-0.05500
146.06935	1141.77000	-0.05000
146.34937	1141.91000	-0.04700
146.62939	1141.79000	-0.04100
146.90940	1141.71000	-0.03900
147.18942	1141.66000	-0.03600
147.46943	1141.44000	-0.03200
147.74945	1141.32000	-0.02500
148.02947	1141.45000	-0.02300
148.30948	1141.42000	-0.02000
148.58950	1141.40000	-0.01500
148.86951	1141.54000	-0.01000
149.14953	1141.37000	-0.01000
149.42955	1141.30000	-0.00100
149.70956	1141.28000	0.00000
149.98958	1141.32000	0.00200
150.26960	1141.40000	0.01000
150.54961	1141.41000	0.01300
150.82963	1141.36000	0.01900
151.10964	1141.37000	0.02100
151.38966	1141.34000	0.02600
151.66967	1141.51000	0.02700
151.94869	1141.67000	0.03000
152.22171	1141.08000	0.03800
152.48972	1141.30000	0.04000
152.76974	1141.38000	0.04500
153.04975	1141.61000	0.04700
153.32977	1141.71000	0.04800
153.60979	1141.72000	0.05800
153.88980	1141.77000	0.06000
154.16982	1141.81000	0.06100
154.44983	1141.91000	0.06900
154.72985	1142.11000	0.07100
155.00987	1142.31000	0.07200
155.28988	1142.34000	0.08000
155.56990	1142.45000	0.08700
155.84891	1142.64000	0.08700
156.12893	1142.74000	0.09100
156.40895	1142.90000	0.09500
156.68896	1142.90000	0.09800
156.96898	1142.99000	0.10100
157.24899	1143.13000	0.10600
157.52901	1143.18000	0.11000
157.80903	1143.24000	0.11700
158.08904	1143.29000	0.11700
158.36906	1143.30000	0.12200
158.64907	1143.32000	0.12800
158.92909	1143.57000	0.13100
159.20911	1143.72000	0.13800
159.48912	1143.90000	0.14000
159.76914	1143.85000	0.14300
160.04915	1143.77000	0.14800
160.32917	1143.64000	0.14900
160.60919	1143.57000	0.15100
160.88920	1143.73000	0.16100
161.16922	1143.93000	0.16400
161.44923	1144.04000	0.16500
161.72925	1144.28000	0.17200
162.00927	1144.38000	0.17400
162.28928	1144.42000	0.17700
162.56930	1144.32000	0.18300
162.84931	1144.37000	0.18500
163.12933	1144.47000	0.18900
163.40935	1144.53000	0.19400
163.68936	1144.79000	0.19800
163.96938	1144.97000	0.20000
164.24939	1145.04000	0.20700
164.52941	1145.11000	0.20800
164.80943	1145.33000	0.21300
165.08944	1145.49000	0.21600
165.36946	1145.58000	0.22400
165.64947	1145.72000	0.22300
165.92949	1145.94000	0.23000
166.20951	1145.89000	0.23300
166.48852	1146.10000	0.23800
166.76154	1145.19000	0.24100
167.03055	1145.72000	0.24500
167.30957	1146.14000	0.24800
167.58959	1146.52000	0.25300
167.86960	1146.83000	0.25700
168.14862	1147.10000	0.26300
168.42163	1146.44000	0.26300
168.69065	1146.88000	0.26900
168.96966	1147.07000	0.27500
169.24968	1147.35000	0.27800
169.52870	1147.40000	0.28100
169.80871	1147.29000	0.28200
170.08873	1147.28000	0.28500
170.36874	1147.46000	0.29400
170.64876	1147.71000	0.29400
170.92878	1147.72000	0.29900
171.20879	1147.71000	0.30200
171.48881	1147.70000	0.30900
171.76882	1147.51000	0.31100
172.04884	1147.48000	0.31700
172.32886	1147.49000	0.32100
172.60887	1147.37000	0.32300
172.88889	1147.14000	0.33000
173.16890	1147.02000	0.33000
173.44892	1147.00000	0.33800
173.72894	1146.96000	0.34000
174.00895	1146.77000	0.34200
174.28897	1146.42000	0.34800
174.56898	1146.16000	0.34900
174.84900	1146.09000	0.35300
175.12902	1146.10000	0.35800
175.40903	1146.05000	0.36200
175.68905	1145.83000	0.36500
175.96906	1145.61000	0.37200
176.24908	1145.71000	0.37200
176.52910	1145.62000	0.37700
176.80911	1145.42000	0.38000
177.08913	1145.24000	0.38800
177.36914	1145.25000	0.39000
177.64916	1145.07000	0.39300
177.92918	1144.95000	0.39400
178.20919	1144.85000	0.40400
178.48921	1144.60000	0.40600
178.76922	1144.37000	0.41000
179.04924	1143.90000	0.41700
179.32926	1143.51000	0.41900
179.60927	1143.32000	0.42200
179.88929	1143.09000	0.42900
180.16930	1142.78000	0.43000
180.44932	1142.73000	0.43500
180.72934	1142.58000	0.43900
181.00935	1142.48000	0.44200
181.28837	1142.33000	0.44400
181.56138	1141.44000	0.44900
181.83040	1141.52000	0.45300
182.10842	1141.58000	0.45700
182.38143	1141.03000	0.46000
182.65045	1141.25000	0.46300
182.92846	1141.26000	0.46800
183.20148	1140.24000	0.47100
183.47049	1140.58000	0.47700
183.74851	1140.78000	0.47800
184.02853	1140.94000	0.48200
184.30854	1141.04000	0.48700
184.58856	1141.37000	0.49100
184.86857	1141.65000	0.49900
185.14859	1141.86000	0.50200
185.42861	1142.16000	0.50800
185.70862	1142.39000	0.50900
185.98864	1142.66000	0.51000
186.26865	1142.85000	0.51500
186.54867	1142.88000	0.51900
186.82869	1142.96000	0.52400
187.10870	1142.94000	0.52900
187.38872	1143.09000	0.53100
187.66873	1143.36000	0.53700
187.94875	1143.74000	0.54200
188.22877	1143.79000	0.53800
188.50878	1143.89000	0.54100
188.78880	1143.88000	0.55200
189.06881	1144.12000	0.55200
189.34883	1144.35000	0.55700
189.62885	1144.47000	0.56100
189.90886	1144.59000	0.56900
190.18888	1144.78000	0.57300
190.46889	1144.93000	0.57400
190.74891	1144.94000	0.57900
191.02893	1145.18000	0.58500
191.30894	1145.43000	0.58800
191.58896	1145.56000	0.58900
191.86897	1145.54000	0.59300
192.14899	1145.46000	0.60200
192.42901	1145.49000	0.60400
192.70902	1145.67000	0.60600
192.98904	1145.97000	0.60800
193.26905	1146.00000	0.61800
193.54907	1146.16000	0.61900
193.82909	1146.37000	0.62300
194.10910	1146.59000	0.62500
194.38912	1146.62000	0.62500
194.66913	1146.81000	0.63300
194.94815	1147.05000	0.63900
195.22317	1146.49000	0.63900
195.49118	1146.82000	0.64700
195.76920	1147.11000	0.64800
196.04921	1147.36000	0.65100
196.32923	1147.58000	0.65800
196.60825	1147.85000	0.66400
196.88826	1147.83000	0.66600
197.16828	1147.74000	0.67000
197.44829	1147.55000	0.67500
197.72931	1147.27000	0.67700
198.00833	1147.24000	0.68300
198.28834	1147.15000	0.68600
198.56836	1147.34000	0.68700
198.84837	1147.41000	0.69400
199.12839	1147.54000	0.69800
199.40841	1147.59000	0.70200
199.68842	1147.56000	0.70600
199.96844	1147.45000	0.70700
200.24845	1147.44000	0.71300
200.52847	1147.52000	0.71700
200.80849	1147.54000	0.71700
201.08850	1147.58000	0.72300
201.36852	1147.36000	0.73000
201.64853	1147.05000	0.73200
201.92855	1146.81000	0.73700
202.20857	1146.56000	0.74000
202.48858	1146.26000	0.74700
202.76860	1146.21000	0.74800
203.04861	1145.84000	0.75200
203.32863	1145.62000	0.75300
203.60865	1145.43000	0.76000
203.88866	1145.19000	0.76500
204.16868	1144.95000	0.76500
204.44869	1144.70000	0.76900
204.72871	1144.37000	0.77600
205.00873	1144.15000	0.78100
205.28874	1144.03000	0.78300
205.56876	1143.76000	0.78900
205.84877	1143.41000	0.79300
206.12879	1143.18000	0.79200
206.40881	1142.90000	0.79900
206.68882	1142.77000	0.80200
206.96884	1142.66000	0.80700
207.24885	1142.51000	0.81400
207.52887	1142.30000	0.81400
207.80889	1142.20000	0.82000
208.08890	1142.23000	0.82300
208.36892	1142.25000	0.82700
208.64893	1142.03000	0.83300
208.92795	1141.82000	0.83600
209.20297	1140.94000	0.83600
209.47098	1141.14000	0.84600
209.74800	1141.21000	0.84900
210.02301	1140.44000	0.85100
210.29103	1140.97000	0.85100
210.56804	1141.45000	0.85700
210.84806	1141.70000	0.86400
211.12908	1142.13000	0.86400
211.40909	1142.25000	0.86900
211.68811	1142.35000	0.86900
211.96812	1142.72000	0.87700
212.24814	1143.07000	0.88000
212.52816	1143.51000	0.88800
212.80817	1144.01000	0.88900
213.08819	1144.40000	0.89100
213.36820	1144.78000	0.89800
213.64822	1145.17000	0.90100
213.92824	1145.58000	0.90200
214.20825	1146.00000	0.91100
214.48827	1146.28000	0.91400
214.76828	1146.57000	0.91500
215.04830	1146.76000	0.92100
215.32832	1146.85000	0.92500
215.60833	1147.04000	0.92800
215.88835	1147.37000	0.93200
216.16836	1147.56000	0.94000
216.44838	1147.71000	0.94300
216.72840	1147.73000	0.94300
217.00841	1147.62000	0.94800
217.28843	1147.41000	0.95000
217.56844	1147.25000	0.95600
217.84846	1147.10000	0.95900
218.12848	1146.87000	0.96600
218.40849	1146.61000	0.97000
218.68851	1146.65000	0.97200
218.96852	1146.62000	0.97400
219.24854	1146.39000	0.97900
219.52856	1146.23000	0.98300
219.80857	1145.94000	0.98900
220.08859	1145.70000	0.99000
220.36860	1145.46000	0.99400
220.64862	1145.21000	1.00000
220.92864	1144.96000	1.00500
221.20865	1144.85000	1.01000
221.48867	1144.79000	1.01500
221.76868	1144.68000	1.01700
222.04870	1144.50000	1.01900
222.32872	1144.23000	1.02200
222.60873	1144.11000	1.02600
222.88875	1143.92000	1.03500
223.16876	1143.74000	1.03500
223.44878	1143.43000	1.03800
223.72880	1143.13000	1.04200
224.00881	1143.18000	1.04500
224.28883	1143.05000	1.05000
224.56884	1142.80000	1.05400
224.84886	1142.54000	1.05700
225.12888	1142.36000	1.06200
225.40889	1142.24000	1.07000
225.68791	1142.06000	1.06700
225.96792	1141.93000	1.07300
226.24794	1141.68000	1.07800
226.52796	1141.31000	1.08300
226.80797	1141.16000	1.08900
227.08799	1141.29000	1.09000
227.36800	1141.26000	1.09300
227.64802	1141.22000	1.09400
227.92804	1141.32000	1.10200
228.20805	1141.32000	1.10700
228.48807	1141.54000	1.10700
228.76808	1141.68000	1.11300
229.04810	1141.96000	1.11800
229.32812	1142.19000	1.12000
229.60813	1142.49000	1.12400
229.88815	1142.80000	1.13200
230.16816	1142.99000	1.13000
230.44818	1143.13000	1.13400
230.72820	1143.07000	1.14100
231.00821	1143.14000	1.14700
231.28823	1143.27000	1.15100
231.56824	1143.52000	1.15300
231.84826	1143.67000	1.15400
232.12828	1143.77000	1.16100
232.40829	1143.94000	1.16400
232.68831	1144.09000	1.16600
232.96832	1144.24000	1.17100
233.24834	1144.31000	1.17500
233.52836	1144.49000	1.18100
233.80837	1144.70000	1.18200
234.08839	1144.98000	1.19100
234.36840	1145.07000	1.19100
234.64842	1145.39000	1.19900
234.92844	1145.47000	1.20200
235.20845	1145.66000	1.20300
235.48847	1145.75000	1.20300
235.76848	1145.79000	1.20800
236.04850	1145.74000	1.21400
236.32852	1145.83000	1.22000
236.60753	1146.07000	1.22100
236.88255	1145.36000	1.22700
237.15056	1145.94000	1.22800
237.42858	1146.48000	1.23800
237.70860	1146.95000	1.23900
237.98761	1147.01000	1.24100
238.26863	1147.13000	1.24600
238.54864	1147.31000	1.24800
238.82866	1147.66000	1.25400
239.10868	1147.90000	1.25800
239.38769	1147.93000	1.26200
239.66771	1147.89000	1.26600
239.94772	1147.79000	1.26900
240.22774	1147.61000	1.27500
240.50776	1147.55000	1.27900
240.78777	1147.46000	1.28200
241.06779	1147.31000	1.28800
241.34780	1147.32000	1.28700
241.62782	1147.43000	1.29200
241.90784	1147.37000	1.29400
242.18785	1147.43000	1.30300
242.46787	1147.41000	1.30300
242.74788	1147.31000	1.30500
243.02790	1147.22000	1.30900
243.30792	1147.27000	1.31700
243.58793	1147.27000	1.32200
243.86795	1147.25000	1.32400
244.14796	1147.11000	1.32900
244.42798	1146.82000	1.33500
244.70800	1146.67000	1.33500
244.98801	1146.41000	1.34000
245.26803	1146.32000	1.34200
245.54804	1146.15000	1.34800
245.82806	1146.06000	1.35200
246.10808	1145.99000	1.35400
246.38809	1145.94000	1.35900
246.66811	1145.58000	1.36200
246.94812	1145.38000	1.36500
247.22814	1145.01000	1.37000
247.50816	1144.58000	1.37100
247.78817	1144.08000	1.37900
248.06819	1143.68000	1.38100
248.34820	1143.35000	1.38700
248.62822	1143.15000	1.38700
248.90824	1142.83000	1.39200
249.18825	1142.54000	1.39700
249.46827	1142.31000	1.40300
249.74828	1142.15000	1.40400
250.02830	1142.16000	1.40600
250.30832	1142.26000	1.41300
250.58833	1142.36000	1.41700
250.86835	1142.29000	1.41800
251.14836	1142.23000	1.42400
251.42838	1142.29000	1.43000
251.70840	1142.31000	1.43000
251.98741	1142.45000	1.43600
252.26843	1142.69000	1.43900
252.54844	1142.91000	1.44300
252.82846	1143.25000	1.44700
253.10748	1143.53000	1.45100
253.38749	1143.70000	1.45200
253.66751	1143.82000	1.45900
253.94752	1144.18000	1.46200
254.22754	1144.40000	1.46500
254.50756	1144.66000	1.47000
254.78757	1144.75000	1.47500
255.06759	1144.94000	1.47600
255.34760	1145.11000	1.48000
255.62762	1145.18000	1.48300
255.90764	1145.35000	1.48500
256.18765	1145.59000	1.49000
256.46767	1145.77000	1.49400
256.74768	1145.97000	1.49700
257.02770	1146.24000	1.50100
257.30772	1146.42000	1.50700
257.58773	1146.51000	1.51000
257.86775	1146.74000	1.51500
258.14776	1147.11000	1.51500
258.42778	1147.36000	1.52200
258.70780	1147.55000	1.52500
258.98781	1147.62000	1.52800
259.26783	1147.79000	1.53100
259.54785	1147.74000	1.53800
259.82786	1147.73000	1.53900
260.10788	1147.77000	1.54000
260.38789	1147.66000	1.54800
260.66791	1147.61000	1.54900
260.94793	1147.54000	1.55200
261.22794	1147.54000	1.55600
261.50796	1147.45000	1.56400
261.78797	1147.49000	1.56300
262.06799	1147.33000	1.57000
262.34801	1147.13000	1.57300
262.62802	1147.01000	1.57600
262.90804	1146.86000	1.58100
263.18805	1146.77000	1.58300
263.46807	1146.54000	1.58700
263.74809	1146.48000	1.59100
264.02810	1146.39000	1.59400
264.30812	1146.41000	1.59800
264.58813	1146.35000	1.59800
264.86815	1146.10000	1.60200
265.14817	1145.90000	1.60600
265.42818	1145.76000	1.61000
265.70720	1145.56000	1.61400
265.98821	1145.42000	1.61800
266.26823	1145.30000	1.62000
266.54725	1145.46000	1.62700
266.82726	1145.37000	1.62700
267.10728	1145.35000	1.63400
267.38729	1145.27000	1.63600
267.66731	1145.11000	1.63700
267.94733	1144.96000	1.64000
268.22734	1144.86000	1.64600
268.50736	1144.63000	1.64800
268.78737	1144.60000	1.65300
269.06739	1144.49000	1.65700
269.34741	1144.30000	1.65700
269.62742	1144.18000	1.66300
269.90744	1144.25000	1.66700
270.18745	1144.26000	1.66900
270.46747	1144.12000	1.67200
270.74749	1144.12000	1.67800
271.02750	1144.10000	1.68200
271.30752	1144.12000	1.68200
271.58753	1144.20000	1.68300
271.86755	1144.05000	1.68600
272.14757	1143.88000	1.69000
272.42758	1143.64000	1.69600
272.70760	1143.53000	1.69900
272.98761	1143.50000	1.69800
273.26763	1143.25000	1.70400
273.54765	1143.05000	1.70900
273.82766	1142.94000	1.71100
274.10768	1142.80000	1.71500
274.38769	1142.73000	1.71500
274.66771	1142.86000	1.72100
274.94773	1142.70000	1.72600
275.22774	1142.59000	1.72500
275.50776	1142.40000	1.72700
275.78777	1142.36000	1.73300
276.06779	1142.20000	1.73300
276.34781	1142.35000	1.73600
276.62782	1142.35000	1.74300
276.90784	1142.27000	1.74300
277.18785	1142.27000	1.74900
277.46787	1142.02000	1.74700
277.74789	1141.92000	1.75300
278.02790	1141.87000	1.75400
278.30692	1141.98000	1.75600
278.58193	1141.34000	1.76000
278.85095	1141.74000	1.76500
279.12796	1142.19000	1.76800
279.40798	1142.83000	1.76700
279.68800	1143.19000	1.77500
279.96801	1143.24000	1.77600
280.24703	1143.14000	1.77800
280.52705	1143.25000	1.77900
280.80706	1143.20000	1.78200
281.08708	1143.46000	1.78400
281.36709	1143.65000	1.78900
281.64711	1144.05000	1.79300
281.92713	1144.51000	1.79100
282.20714	1144.82000	1.79900
282.48716	1145.23000	1.80300
282.76717	1145.53000	1.80200
283.04719	1145.68000	1.80800
283.32721	1145.90000	1.80400
283.60722	1146.24000	1.81000
283.88724	1146.40000	1.81100
284.16725	1146.73000	1.81300
284.44727	1146.90000	1.81400
284.72729	1147.23000	1.81700
285.00730	1147.31000	1.82100
285.28732	1147.50000	1.82400
285.56733	1147.48000	1.82900
285.84735	1147.33000	1.82800
286.12737	1147.08000	1.83100
286.40738	1147.03000	1.83300
286.68740	1146.90000	1.83500
286.96741	1146.75000	1.83700
287.24743	1146.64000	1.83900
287.52745	1146.61000	1.83800
287.80746	1146.40000	1.84400
288.08748	1146.29000	1.84600
288.36749	1146.13000	1.84700
288.64751	1146.00000	1.84600
288.92753	1145.86000	1.84900
289.20754	1145.81000	1.85100
289.48756	1145.66000	1.85700
289.76757	1145.61000	1.85500
290.04759	1145.53000	1.85900
290.32761	1145.48000	1.85900
290.60762	1145.30000	1.86100
290.88764	1145.07000	1.86500
291.16765	1144.87000	1.86300
291.44767	1144.66000	1.86600
291.72769	1144.45000	1.86700
292.00770	1144.24000	1.86900
292.28772	1144.05000	1.86800
292.56673	1143.95000	1.87100
292.84675	1143.90000	1.87500
293.11977	1143.19000	1.87300
293.39078	1143.20000	1.87300
293.66780	1143.10000	1.87600
293.94781	1143.09000	1.88100
294.22683	1142.94000	1.88300
294.50684	1142.79000	1.88000
294.78686	1142.65000	1.88200
295.06688	1142.36000	1.88400
295.34689	1142.14000	1.88400
295.62691	1142.09000	1.88400
295.90692	1142.03000	1.88400
296.18694	1141.97000	1.88800
296.46696	1141.84000	1.89000
296.74697	1141.76000	1.88700
297.02699	1141.72000	1.89200
297.30700	1141.73000	1.88900
297.58702	1141.99000	1.89100
297.86704	1142.08000	1.89200
298.14705	1142.27000	1.89400
298.42707	1142.55000	1.89500
298.70708	1142.85000	1.89100
298.98710	1142.85000	1.89300
299.26712	1142.88000	1.89300
299.54713	1142.84000	1.89600
299.82715	1142.89000	1.89500
300.10716	1143.02000	1.89400
300.38718	1142.97000	1.89700
300.66720	1142.91000	1.89600
300.94721	1142.98000	1.89500
301.22723	1143.21000	1.89800
301.50725	1143.34000	1.89400
301.78726	1143.42000	1.89700
302.06728	1143.60000	1.89600
302.34729	1143.97000	1.89500
302.62731	1144.20000	1.89400
302.90733	1144.52000	1.89500
303.18734	1144.76000	1.89900
303.46736	1145.17000	1.89800
303.74737	1145.44000	1.89400
304.02739	1145.75000	1.89600
304.30741	1145.99000	1.89500
304.58742	1146.06000	1.89400
304.86744	1146.24000	1.89400
305.14745	1146.16000	1.89100
305.42647	1146.03000	1.89400
305.69948	1145.03000	1.89300
305.97050	1145.27000	1.89100
306.24652	1145.49000	1.89100
306.52053	1144.75000	1.89200
306.79055	1145.32000	1.88700
307.06656	1145.63000	1.88900
307.34758	1145.88000	1.89100
307.62660	1146.31000	1.88800
307.90661	1146.60000	1.88600
308.18663	1146.71000	1.88900
308.46664	1146.92000	1.88400
308.74666	1147.14000	1.88400
309.02768	1147.29000	1.88400
309.30669	1147.35000	1.88200
309.58671	1147.48000	1.88200
309.86672	1147.54000	1.87700
310.14674	1147.59000	1.88000
310.42675	1147.65000	1.87900
310.70677	1147.70000	1.87900
310.98679	1147.62000	1.87600
311.26680	1147.65000	1.87400
311.54682	1147.79000	1.87500
311.82684	1147.83000	1.87400
312.10685	1147.93000	1.87100
312.38687	1147.89000	1.87000
312.66688	1147.87000	1.87000
312.94690	1147.71000	1.86500
313.22691	1147.68000	1.86500
313.50693	1147.69000	1.86200
313.78695	1147.73000	1.86200
314.06696	1147.77000	1.85900
314.34698	1147.83000	1.85900
314.62700	1147.77000	1.85500
314.90701	1147.53000	1.85500
315.18703	1147.48000	1.85600
315.46704	1147.56000	1.85000
315.74706	1147.50000	1.84900
316.02708	1147.50000	1.84700
316.30709	1147.49000	1.84800
316.58711	1147.40000	1.84400
316.86712	1147.25000	1.83900
317.14714	1147.06000	1.84000
317.42716	1146.98000	1.83800
317.70717	1146.90000	1.83400
317.98719	1147.01000	1.83400
318.26720	1147.16000	1.83200
318.54722	1147.25000	1.82700
318.82724	1147.30000	1.82700
319.10725	1147.24000	1.82500
319.38727	1147.20000	1.82000
319.66728	1147.00000	1.82100
319.94730	1147.03000	1.81900
320.22732	1146.75000	1.81700
320.50733	1146.65000	1.80900
320.78735	1146.62000	1.81000
321.06736	1146.67000	1.81000
321.34738	1146.58000	1.80700
321.62740	1146.73000	1.80200
321.90741	1146.90000	1.79900
322.18643	1147.05000	1.79600
322.46644	1147.14000	1.79400
322.74746	1147.10000	1.79700
323.02648	1147.09000	1.79200
323.30649	1147.13000	1.79100
323.58651	1147.04000	1.78200
323.86652	1147.02000	1.78100
324.14654	1147.04000	1.77600
324.42656	1146.97000	1.77700
324.70657	1146.87000	1.77500
324.98659	1146.71000	1.77400
325.26660	1146.44000	1.76700
325.54662	1146.44000	1.76400
325.82664	1146.48000	1.76500
326.10665	1146.55000	1.75600
326.38667	1146.79000	1.75800
326.66668	1146.77000	1.75600
326.94670	1146.86000	1.75200
327.22672	1146.89000	1.75000
327.50673	1146.80000	1.75000
327.78675	1146.72000	1.73700
328.06676	1146.68000	1.74100
328.34678	1146.83000	1.73600
328.62680	1146.80000	1.73300
328.90681	1146.61000	1.73200
329.18683	1146.61000	1.72600
329.46684	1146.65000	1.72600
329.74686	1146.90000	1.71900
330.02688	1146.94000	1.71900
330.30689	1146.98000	1.71700
330.58691	1146.83000	1.70900
330.86692	1146.69000	1.71000
331.14694	1146.80000	1.70500
331.42696	1146.79000	1.70200
331.70697	1146.80000	1.70300
331.98699	1146.86000	1.69700
332.26700	1146.82000	1.69100
332.54702	1146.61000	1.68900
332.82604	1146.38000	1.68500
333.10005	1145.68000	1.68600
333.37107	1145.90000	1.68500
333.64708	1145.87000	1.67800
333.92710	1145.84000	1.67400
334.20712	1145.95000	1.66600
334.48713	1145.97000	1.66700
334.76715	1145.94000	1.66400
335.04716	1145.92000	1.65700
335.32718	1146.01000	1.66000
335.60720	1146.10000	1.65500
335.88721	1145.98000	1.65100
336.16723	1145.74000	1.64500
336.44624	1145.64000	1.64100
336.72626	1145.60000	1.63800
337.00628	1145.62000	1.63600
337.28629	1145.67000	1.63600
337.56631	1145.69000	1.63200
337.84632	1145.80000	1.62800
338.12634	1145.73000	1.62200
338.40636	1145.43000	1.61700
338.68637	1145.34000	1.61600
338.96639	1145.20000	1.61600
339.24640	1145.10000	1.60900
339.52642	1145.12000	1.60700
339.80644	1145.03000	1.60000
340.08645	1144.87000	1.60000
340.36647	1144.96000	1.59300
340.64648	1145.04000	1.59400
340.92650	1145.07000	1.58800
341.20652	1145.14000	1.58600
341.48653	1145.17000	1.58000
341.76655	1145.06000	1.57400
342.04656	1144.84000	1.57400
342.32658	1144.70000	1.56700
342.60660	1144.44000	1.56900
342.88661	1144.10000	1.56400
343.16663	1143.87000	1.56000
343.44664	1143.84000	1.55700
343.72666	1143.84000	1.54800
344.00668	1143.96000	1.54800
344.28669	1143.93000	1.54700
344.56671	1144.00000	1.54100
344.84672	1144.04000	1.53600
345.12674	1143.83000	1.53100
345.40676	1143.74000	1.53200
345.68677	1143.85000	1.52900
345.96679	1143.84000	1.52500
346.24680	1144.06000	1.52000
346.52682	1144.14000	1.51000
346.80684	1144.23000	1.51200
347.08585	1144.05000	1.50500
347.35987	1143.29000	1.50500
347.63088	1143.54000	1.50100
347.90690	1143.60000	1.50000
348.18691	1143.84000	1.49000
348.46693	1144.00000	1.48600
348.74595	1144.26000	1.48200
349.02696	1144.40000	1.48200
349.30698	1144.54000	1.47900
349.58700	1144.44000	1.47400
349.86701	1144.21000	1.47100
350.14603	1144.09000	1.46800
350.42604	1143.86000	1.46600
350.70606	1143.75000	1.46000
350.98607	1143.73000	1.45600
351.26609	1143.83000	1.45200
351.54611	1143.77000	1.44500
351.82612	1143.89000	1.44500
352.10614	1143.81000	1.44000
352.38616	1143.72000	1.43400
352.66617	1143.51000	1.43500
352.94619	1143.43000	1.42800
353.22620	1143.46000	1.42900
353.50622	1143.56000	1.42200
353.78623	1143.52000	1.41900
354.06625	1143.49000	1.41700
354.34627	1143.35000	1.41100
354.62628	1143.26000	1.40800
354.90630	1143.17000	1.40700
355.18632	1143.09000	1.40000
355.46633	1143.17000	1.39800
355.74635	1142.96000	1.39400
356.02636	1142.91000	1.38900
356.30638	1142.85000	1.38700
356.58639	1142.96000	1.38300
356.86641	1143.06000	1.37700
357.14643	1142.97000	1.37000
357.42644	1143.20000	1.37100
357.70646	1143.06000	1.36400
357.98648	1143.20000	1.36100
358.26649	1143.32000	1.35800
358.54651	1143.45000	1.35500
358.82652	1143.58000	1.34800
359.10654	1143.47000	1.34700
359.38656	1143.25000	1.34300
359.66657	1143.02000	1.33900
359.94659	1142.98000	1.33400
360.22660	1142.71000	1.33300
360.50662	1142.49000	1.33000
360.78664	1142.55000	1.32300
361.06665	1142.52000	1.31800
361.34667	1142.44000	1.31200
361.62668	1142.24000	1.30900
361.90670	1142.06000	1.30700
362.18672	1141.93000	1.30400
362.46673	1141.86000	1.30400
362.74675	1142.01000	1.29400
363.02676	1142.07000	1.29300
363.30678	1141.97000	1.29000
363.58580	1141.77000	1.28800
363.86581	1141.62000	1.27700
364.14583	1141.79000	1.27600
364.42584	1142.01000	1.27100
364.70586	1142.14000	1.26700
364.98588	1142.20000	1.26300
365.26589	1142.26000	1.26300
365.54591	1142.33000	1.25500
365.82592	1142.46000	1.25500
366.10594	1142.63000	1.25000
366.38596	1142.60000	1.24600
366.66597	1142.72000	1.24000
366.94599	1142.71000	1.23600
367.22600	1142.70000	1.23400
367.50602	1142.94000	1.23100
367.78604	1143.31000	1.22900
368.06605	1143.77000	1.22300
368.34607	1144.17000	1.21800
368.62608	1144.42000	1.21600
368.90610	1144.69000	1.21000
369.18612	1145.09000	1.20500
369.46613	1145.54000	1.20200
369.74615	1145.75000	1.19900
370.02616	1145.75000	1.19400
370.30618	1145.85000	1.18800
370.58620	1145.96000	1.18700
370.86621	1146.08000	1.17900
371.14623	1146.04000	1.17700
371.42624	1146.12000	1.17500
371.70626	1146.24000	1.17200
371.98628	1146.29000	1.16900
372.26629	1146.56000	1.16200
372.54631	1146.80000	1.15900
372.82632	1146.87000	1.15600
373.10634	1146.99000	1.14900
373.38636	1147.08000	1.14700
373.66637	1147.32000	1.14300
373.94639	1147.37000	1.13900
374.22640	1147.62000	1.13300
374.50642	1147.76000	1.13400
374.78644	1147.90000	1.12700
375.06645	1147.75000	1.12700
375.34647	1147.56000	1.12400
375.62648	1147.38000	1.11600
375.90650	1147.24000	1.11000
376.18652	1147.19000	1.10800
376.46653	1147.21000	1.10800
376.74655	1147.13000	1.10100
377.02656	1147.09000	1.09300
377.30658	1147.05000	1.09000
377.58560	1147.07000	1.08500
377.86561	1147.08000	1.08200
378.14563	1147.17000	1.08300
378.42564	1147.12000	1.07600
378.70566	1146.89000	1.07400
378.98568	1146.86000	1.06800
379.26569	1146.99000	1.06700
379.54571	1147.10000	1.05900
379.82572	1147.26000	1.05800
380.10574	1147.25000	1.05400
380.38576	1146.95000	1.05200
380.66577	1146.66000	1.04500
380.94579	1146.44000	1.04100
381.22580	1146.27000	1.03900
381.50582	1146.06000	1.03400
381.78584	1145.86000	1.02900
382.06585	1145.72000	1.02400
382.34587	1145.56000	1.02400
382.62588	1145.59000	1.01600
382.90590	1145.70000	1.01400
383.18592	1145.63000	1.00800
383.46593	1145.63000	1.00700
383.74595	1145.50000	1.00200
384.02596	1145.44000	0.99800
384.30598	1145.35000	0.99800
384.58600	1145.30000	0.99000
384.86601	1145.29000	0.98600
385.14603	1145.05000	0.98000
385.42604	1144.85000	0.97800
385.70606	1144.74000	0.97300
385.98608	1144.67000	0.97100
386.26609	1144.44000	0.96600
386.54611	1144.24000	0.96500
386.82612	1144.14000	0.95900
387.10614	1143.98000	0.95300
387.38616	1143.83000	0.95300
387.66617	1143.53000	0.94800
387.94619	1143.47000	0.94200
388.22621	1143.23000	0.93800
388.50622	1143.11000	0.93200
388.78624	1143.12000	0.93100
389.06625	1143.11000	0.92400
389.34627	1142.94000	0.92200
389.62629	1142.55000	0.91800
389.90630	1142.28000	0.91400
390.18632	1142.08000	0.91000
390.46633	1141.89000	0.90400
390.74635	1141.63000	0.90100
391.02537	1141.54000	0.90100
391.30538	1141.49000	0.89700
391.58540	1141.61000	0.89300
391.86541	1141.74000	0.88900
392.14543	1141.74000	0.88400
392.42545	1141.82000	0.88200
392.70546	1141.79000	0.87700
392.98548	1141.92000	0.87500
393.26549	1142.22000	0.86800
393.54551	1142.36000	0.86400
393.82553	1142.59000	0.86100
394.10554	1142.74000	0.85700
394.38556	1142.95000	0.85200
394.66557	1143.07000	0.84600
394.94559	1143.22000	0.84500
395.22561	1143.42000	0.84100
395.50562	1143.57000	0.83700
395.78564	1143.57000	0.83200
396.06565	1143.72000	0.83100
396.34567	1143.75000	0.82100
396.62569	1143.86000	0.81800
396.90570	1144.06000	0.81800
397.18572	1144.38000	0.81300
397.46573	1144.53000	0.81100
397.74575	1144.48000	0.81000
398.02577	1144.48000	0.79900
398.30578	1144.61000	0.80100
398.58580	1144.76000	0.79400
398.86581	1144.92000	0.78900
399.14583	1145.05000	0.78500
399.42585	1145.22000	0.77900
399.70586	1145.38000	0.77700
399.98588	1145.42000	0.77100
400.26589	1145.35000	0.76900
400.54591	1145.34000	0.76500
400.82593	1145.41000	0.76000
401.10594	1145.60000	0.75600
401.38596	1145.88000	0.75400
401.66597	1145.89000	0.75200
401.94599	1145.96000	0.74700
402.22601	1146.00000	0.74400
402.50602	1146.01000	0.73500
402.78604	1146.07000	0.73600
403.06605	1146.14000	0.72600
403.34607	1146.17000	0.72900
403.62609	1146.25000	0.72100
403.90610	1146.38000	0.71700
404.18612	1146.41000	0.71600
404.46613	1146.47000	0.70800
404.74515	1146.27000	0.70500
405.02517	1146.40000	0.70200
405.30518	1146.32000	0.69800
405.58520	1146.30000	0.69500
405.86521	1146.39000	0.69000
406.14523	1146.46000	0.68800
406.42525	1146.38000	0.68200
406.70526	1146.36000	0.67500
406.98528	1146.34000	0.67600
407.26529	1146.36000	0.67100
407.54531	1146.48000	0.66900
407.82533	1146.51000	0.66500
408.10534	1146.56000	0.65900
408.38536	1146.51000	0.65300
408.66537	1146.63000	0.65100
408.94539	1146.61000	0.64600
409.22541	1146.56000	0.63900
409.50542	1146.43000	0.64000
409.78544	1146.38000	0.63000
410.06545	1146.44000	0.63000
410.34547	1146.59000	0.62900
410.62549	1146.68000	0.62300
410.90550	1146.71000	0.62300
411.18552	1146.75000	0.61900
411.46553	1146.65000	0.61300
411.74555	1146.53000	0.60800
412.02557	1146.47000	0.60200
412.30558	1146.37000	0.59900
412.58560	1146.50000	0.59400
412.86561	1146.55000	0.59300
413.14563	1146.58000	0.58600
413.42565	1146.62000	0.58400
413.70566	1146.58000	0.58000
413.98568	1146.49000	0.57800
414.26569	1146.42000	0.57500
414.54571	1146.35000	0.56700
414.82573	1146.46000	0.56400
415.10574	1146.56000	0.55900
415.38576	1146.52000	0.55500
415.66577	1146.59000	0.55100
415.94579	1146.65000	0.54800
416.22581	1146.78000	0.54700
416.50582	1146.81000	0.54200
416.78484	1146.98000	0.53800
417.05985	1146.21000	0.53400
417.33087	1146.42000	0.52800
417.60589	1146.64000	0.52800
417.88590	1146.80000	0.52200
418.16492	1147.06000	0.51800
418.44493	1147.03000	0.51200
418.72495	1147.02000	0.50900
419.00497	1146.98000	0.50400
419.28498	1147.06000	0.50000
419.56500	1147.00000	0.49700
419.84501	1147.04000	0.49500
420.12503	1147.19000	0.48700
420.40505	1147.34000	0.48700
420.68506	1147.44000	0.48100
420.96508	1147.67000	0.48000
421.24509	1147.78000	0.46900
421.52511	1147.78000	0.47100
421.80513	1147.72000	0.46800
422.08514	1147.75000	0.46400
422.36516	1147.59000	0.45800
422.64517	1147.62000	0.45700
422.92519	1147.80000	0.45100
423.20521	1148.04000	0.44900
423.48522	1148.18000	0.44200
423.76524	1148.32000	0.44000
424.04525	1148.20000	0.43300
424.32527	1148.05000	0.43200
424.60529	1147.93000	0.43000
424.88530	1147.78000	0.42200
425.16532	1147.79000	0.41800
425.44533	1147.80000	0.41400
425.72535	1147.70000	0.41100
426.00537	1147.71000	0.40700
426.28538	1147.85000	0.40200
426.56540	1148.00000	0.39800
426.84541	1147.94000	0.39300
427.12543	1147.84000	0.39400
427.40545	1147.91000	0.38700
427.68546	1147.82000	0.38600
427.96548	1147.61000	0.37900
428.24549	1147.15000	0.37200
428.52551	1146.88000	0.37200
428.80553	1146.72000	0.36800
429.08554	1146.58000	0.36400
429.36556	1146.52000	0.35800
429.64557	1146.44000	0.35700
429.92559	1146.39000	0.35100
430.20561	1146.42000	0.34800
430.48562	1146.38000	0.34500
430.76564	1146.27000	0.34100
431.04565	1146.25000	0.33400
431.32567	1146.31000	0.33100
431.60569	1146.31000	0.32900
431.88470	1146.29000	0.32400
432.16572	1146.01000	0.32000
432.44473	1146.04000	0.31800
432.72475	1146.08000	0.31400
433.00577	1146.09000	0.30800
433.28478	1145.99000	0.30700
433.56480	1146.11000	0.29900
433.84481	1145.96000	0.30100
434.12483	1145.90000	0.29300
434.40485	1145.83000	0.28800
434.68486	1145.90000	0.28400
434.96488	1145.91000	0.28300
435.24489	1145.85000	0.27600
435.52491	1145.89000	0.27400
435.80493	1145.89000	0.27100
436.08494	1145.75000	0.26700
436.36496	1145.59000	0.26200
436.64497	1145.40000	0.25700
436.92499	1145.14000	0.25400
437.20501	1145.00000	0.25200
437.48502	1144.87000	0.24400
437.76504	1144.81000	0.24000
438.04505	1144.71000	0.23700
438.32507	1144.60000	0.23200
438.60509	1144.54000	0.23100
438.88510	1144.28000	0.22500
439.16512	1144.08000	0.22300
439.44514	1143.95000	0.21500
439.72515	1143.97000	0.21500
440.00517	1144.00000	0.21300
440.28518	1143.83000	0.20400
440.56520	1143.73000	0.20000
440.84521	1143.64000	0.20100
441.12523	1143.58000	0.19400
441.40525	1143.57000	0.19000
441.68526	1143.57000	0.18800
441.96528	1143.28000	0.18400
442.24530	1143.02000	0.17800
442.52531	1142.75000	0.17400
442.80533	1142.55000	0.16900
443.08534	1142.31000	0.16700
443.36536	1141.99000	0.16400
443.64537	1141.79000	0.15700
443.92539	1141.62000	0.15700
444.20541	1141.65000	0.15300
444.48542	1141.55000	0.14900
444.76444	1141.44000	0.14300
445.04045	1140.68000	0.14000
445.31047	1141.03000	0.13600
445.58549	1141.18000	0.13400
445.86550	1141.46000	0.12400
446.14452	1141.80000	0.12400
446.42553	1141.90000	0.11800
446.70555	1141.94000	0.11700
446.98457	1141.96000	0.11700
447.26558	1142.11000	0.11200
447.54460	1142.39000	0.10500
447.82461	1142.65000	0.10300
448.10463	1142.81000	0.09800
448.38465	1143.00000	0.09200
448.66466	1143.16000	0.08800
448.94468	1143.16000	0.08500
449.22469	1143.44000	0.08100
449.50471	1143.52000	0.07800
449.78473	1143.56000	0.07200
450.06474	1143.68000	0.07000
450.34476	1143.89000	0.06600
450.62477	1143.95000	0.06100
450.90479	1144.14000	0.05700
451.18481	1144.24000	0.05400
451.46482	1144.45000	0.04800
451.74484	1144.71000	0.04800
452.02485	1144.90000	0.04400
452.30487	1145.06000	0.04000
452.58489	1145.40000	0.03400
452.86490	1145.59000	0.02900
453.14492	1145.69000	0.02600
453.42493	1145.75000	0.02400
453.70495	1145.72000	0.01800
453.98497	1145.90000	0.01400
454.26498	1145.92000	0.01100
454.54500	1145.90000	0.00400
454.82501	1146.04000	0.00400
455.10503	1146.22000	-0.00400
455.38505	1146.40000	-0.00500
455.66506	1146.65000	-0.00800
455.94508	1146.93000	-0.01500
456.22509	1147.07000	-0.02000
456.50511	1146.99000	-0.02200
456.78513	1146.96000	-0.02900
457.06514	1147.12000	-0.03200
457.34516	1147.29000	-0.03400
457.62517	1147.37000	-0.03700
457.90519	1147.51000	-0.04300
458.18521	1147.65000	-0.04600
458.46522	1147.78000	-0.04600
458.74524	1147.78000	-0.05300
459.02525	1147.73000	-0.05500
459.30527	1147.75000	-0.06100
459.58529	1147.74000	-0.06500
459.86530	1147.74000	-0.06800
460.14532	1147.84000	-0.07500
460.42533	1147.74000	-0.07700
460.70535	1147.74000	-0.08200
460.98537	1147.80000	-0.08500
461.26438	1147.79000	-0.08700
461.54440	1147.83000	-0.09400
461.82442	1147.80000	-0.09800
462.10443	1147.73000	-0.10000
462.38445	1147.76000	-0.10200
462.66446	1147.87000	-0.10600
462.94448	1147.76000	-0.11200
463.22449	1147.64000	-0.11500
463.50451	1147.41000	-0.11900
463.78453	1147.11000	-0.12400
464.06454	1147.04000	-0.12700
464.34456	1146.88000	-0.13200
464.62458	1146.62000	-0.13400
464.90459	1146.70000	-0.13900
465.18461	1146.57000	-0.14200
465.46462	1146.40000	-0.15000
465.74464	1146.15000	-0.15200
466.02465	1146.03000	-0.15500
466.30467	1146.06000	-0.16000
466.58469	1146.01000	-0.16400
466.86470	1146.11000	-0.17000
467.14472	1146.44000	-0.17000
467.42474	1146.72000	-0.17600
467.70475	1146.90000	-0.18200
467.98477	1146.84000	-0.18400
468.26478	1146.92000	-0.18500
468.54480	1146.84000	-0.18900
468.82481	1146.93000	-0.19600
469.10483	1147.04000	-0.19900
469.38485	1147.07000	-0.20100
469.66486	1147.16000	-0.20500
469.94488	1147.20000	-0.20900
470.22490	1147.00000	-0.21500
470.50491	1146.75000	-0.21800
470.78493	1146.66000	-0.22300
471.06494	1146.65000	-0.22400
471.34496	1146.60000	-0.22900
471.62498	1146.58000	-0.23200
471.90499	1146.49000	-0.23900
472.18501	1146.53000	-0.23800
472.46502	1146.73000	-0.24700
472.74504	1146.59000	-0.25200
473.02505	1146.59000	-0.25200
473.30507	1146.62000	-0.25500
473.58509	1146.61000	-0.26400
473.86510	1146.51000	-0.26600
474.14512	1146.59000	-0.27000
474.42514	1146.68000	-0.27300
474.70415	1146.77000	-0.27700
474.98417	1146.88000	-0.28100
475.26418	1146.89000	-0.28200
475.54420	1146.88000	-0.28600
475.82421	1147.07000	-0.29100
476.10423	1147.18000	-0.29800
476.38425	1147.30000	-0.30000
476.66426	1147.46000	-0.30400
476.94428	1147.43000	-0.30900
477.22430	1147.48000	-0.31300
477.50431	1147.49000	-0.31900
477.78433	1147.44000	-0.31900
478.06434	1147.52000	-0.32400
478.34436	1147.31000	-0.32900
478.62438	1147.03000	-0.33300
478.90439	1147.12000	-0.33400
479.18441	1147.34000	-0.34400
479.46442	1147.39000	-0.34400
479.74444	1147.54000	-0.34600
480.02446	1147.56000	-0.35400
480.30447	1147.68000	-0.35700
480.58449	1147.69000	-0.36200
480.86450	1147.67000	-0.36100
481.14452	1147.76000	-0.36800
481.42454	1147.81000	-0.36900
481.70455	1147.88000	-0.37500
481.98457	1147.74000	-0.37800
482.26458	1147.53000	-0.38200
482.54460	1147.52000	-0.38700
482.82462	1147.69000	-0.39100
483.10463	1147.56000	-0.39300
483.38465	1147.29000	-0.39600
483.66266	1146.35000	-0.40300
483.93068	1146.74000	-0.40700
484.20470	1147.08000	-0.41300
484.48471	1147.22000	-0.41800
484.76473	1147.25000	-0.41800
485.04474	1147.24000	-0.42200
485.32476	1147.28000	-0.42600
485.60477	1147.44000	-0.43200
485.88479	1147.45000	-0.43700
486.16481	1147.58000	-0.44100
486.44482	1147.62000	-0.44100
486.72484	1147.51000	-0.44300
487.00486	1147.46000	-0.45100
487.28487	1147.58000	-0.45600
487.56489	1147.52000	-0.45500
487.84490	1147.37000	-0.46300
488.12492	1147.53000	-0.46500
488.40493	1147.71000	-0.47000
488.68395	1147.69000	-0.47000
488.96397	1147.67000	-0.47600
489.24398	1147.74000	-0.48000
489.52400	1147.70000	-0.48400
489.80402	1147.84000	-0.48800
490.08403	1147.85000	-0.49300
490.36405	1147.81000	-0.49700
490.64406	1147.61000	-0.50000
490.92408	1147.44000	-0.50400
491.20409	1147.40000	-0.51000
491.48411	1147.33000	-0.51300
491.76413	1147.21000	-0.51500
492.04414	1147.24000	-0.52500
492.32416	1147.29000	-0.52600
492.60418	1147.38000	-0.52800
492.88419	1147.37000	-0.53300
493.16421	1147.42000	-0.53600
493.44422	1147.56000	-0.53900
493.72424	1147.50000	-0.54400
494.00425	1147.65000	-0.54700
494.28227	1147.25000	-0.55200
494.55029	1147.56000	-0.55500
494.82430	1147.80000	-0.55800
495.10432	1147.87000	-0.56200
495.38433	1147.83000	-0.56800
495.66435	1147.89000	-0.56800
495.94437	1147.67000	-0.57600
496.22438	1147.59000	-0.58100
496.50240	1147.04000	-0.57900
496.77041	1147.12000	-0.58700
497.04443	1147.20000	-0.59200
497.32445	1147.23000	-0.59800
497.60446	1147.34000	-0.60000
497.88448	1147.38000	-0.60300
498.16449	1147.42000	-0.60500
498.44451	1147.32000	-0.61100
498.72453	1147.39000	-0.61800
499.00254	1146.73000	-0.61600
499.26956	1147.01000	-0.62200
499.54257	1146.48000	-0.62500
499.80959	1146.76000	-0.63000
500.08260	1146.24000	-0.63400
500.35062	1146.76000	-0.63500
500.62463	1146.94000	-0.64000
500.90265	1146.18000	-0.64500
501.17067	1146.48000	-0.65000
501.44468	1146.63000	-0.65200
501.72270	1146.71000	-0.65400
501.99971	1145.83000	-0.66000
502.27073	1146.12000	-0.66800
502.54274	1146.34000	-0.66800
502.81976	1145.83000	-0.67300
503.09078	1146.18000	-0.68000
503.36279	1146.26000	-0.68200
503.63981	1145.55000	-0.68600
503.90982	1146.05000	-0.68800
504.18284	1146.32000	-0.69100
504.45885	1145.62000	-0.69400
504.72987	1146.17000	-0.70100
505.00288	1146.47000	-0.70400
505.27890	1145.86000	-0.71100
505.54992	1146.34000	-0.71000
505.82293	1146.56000	-0.71400
506.09895	1145.97000	-0.71700
506.36996	1146.37000	-0.72300
506.64298	1146.56000	-0.72700
506.91899	1146.18000	-0.72700
507.19001	1146.46000	-0.73300
507.46302	1146.63000	-0.73600
507.73904	1146.04000	-0.73700
508.01006	1146.49000	-0.74600
508.28307	1146.74000	-0.75300
508.55909	1146.13000	-0.75400
508.83010	1146.50000	-0.75900
509.10312	1146.78000	-0.76000
509.37914	1146.16000	-0.76300
509.65015	1146.58000	-0.76700
509.92217	1146.17000	-0.77500
510.19018	1146.68000	-0.77800
510.46220	1146.21000	-0.78200
510.73021	1146.60000	-0.78300
511.00223	1146.08000	-0.78500
511.27024	1146.38000	-0.79000
511.54226	1145.81000	-0.79400
511.81027	1146.18000	-0.79800
512.08229	1145.47000	-0.80000
512.35030	1145.77000	-0.80700
512.62232	1145.16000	-0.81000
512.89034	1145.65000	-0.81200
513.16235	1145.57000	-0.82200
513.43037	1146.15000	-0.82100
513.70238	1145.59000	-0.82600
513.97040	1146.07000	-0.82700
514.24241	1145.88000	-0.83200
514.50943	1146.33000	-0.83800
514.78244	1145.92000	-0.84200
515.04946	1146.36000	-0.84400
515.32247	1146.08000	-0.84600
515.59049	1146.54000	-0.85200
515.86251	1146.90000	-0.85600
516.13852	1146.28000	-0.86100
516.40954	1146.74000	-0.86500
516.68255	1147.02000	-0.86700
516.95957	1146.44000	-0.87200
517.22958	1146.75000	-0.87500
517.50260	1146.87000	-0.88000
517.77961	1145.97000	-0.88100
518.04963	1146.08000	-0.88700
518.32265	1146.21000	-0.88900
518.59866	1145.40000	-0.89400
518.86968	1145.81000	-0.89900
519.14269	1145.92000	-0.90300
519.41871	1145.36000	-0.90800
519.68972	1145.68000	-0.90900
519.96274	1146.04000	-0.91700
520.23876	1145.60000	-0.91600
520.50977	1146.03000	-0.92100
520.78279	1146.17000	-0.92800
521.05880	1145.48000	-0.92700
521.32982	1145.72000	-0.93000
521.60283	1145.79000	-0.93400
521.87885	1145.12000	-0.94300
522.14986	1145.40000	-0.94400
522.42288	1145.54000	-0.94800
522.69890	1145.00000	-0.95300
522.96991	1145.27000	-0.95700
523.24293	1145.47000	-0.96200
523.51894	1144.80000	-0.96200
523.78996	1145.07000	-0.96600
524.06297	1145.25000	-0.97200
524.33899	1144.75000	-0.97500
524.61001	1145.07000	-0.98100
524.88302	1145.11000	-0.98500
525.15904	1144.44000	-0.98900
525.43005	1144.47000	-0.99100
525.70207	1143.79000	-0.99400
525.97008	1144.05000	-0.99800
526.24210	1143.71000	-1.00000
526.51011	1144.05000	-1.00600
526.78213	1143.54000	-1.01100
527.05015	1143.86000	-1.01100
527.32316	1144.21000	-1.01700
527.59918	1143.73000	-1.01900
527.87019	1144.22000	-1.02500
528.14321	1144.62000	-1.03100
528.42222	1144.18000	-1.03300
528.69024	1144.50000	-1.03400
528.96226	1144.18000	-1.03700
529.23027	1144.39000	-1.04500
529.50229	1143.71000	-1.04600
529.77030	1144.22000	-1.05100
530.04232	1144.05000	-1.05800
530.31033	1144.37000	-1.05900
530.58235	1144.10000	-1.06500
530.85036	1144.55000	-1.06400
531.12238	1144.61000	-1.06800
531.39939	1144.10000	-1.07700
531.67041	1144.36000	-1.07500
531.94243	1144.51000	-1.08200
532.21944	1144.23000	-1.08600
532.49046	1144.54000	-1.08500
532.76247	1144.53000	-1.09100
533.03949	1143.95000	-1.09600
533.31050	1144.15000	-1.10200
533.58252	1144.17000	-1.10400
533.85853	1143.55000	-1.11100
534.13055	1143.77000	-1.11100
534.40357	1144.03000	-1.11700
534.68258	1144.20000	-1.12100
534.95860	1143.62000	-1.12800
535.23061	1143.87000	-1.12800
535.50263	1143.84000	-1.13200
535.77864	1143.25000	-1.13300
536.04966	1143.42000	-1.13800
536.32268	1143.45000	-1.14200
536.59869	1142.67000	-1.14700
536.86971	1142.62000	-1.15100
537.14272	1142.69000	-1.15500
537.41874	1141.95000	-1.15800
537.69075	1142.33000	-1.16200
537.96177	1141.80000	-1.16300
538.22978	1142.10000	-1.16900
538.50180	1141.49000	-1.17100
538.76982	1141.85000	-1.17900
539.04183	1141.44000	-1.17600
539.30985	1142.01000	-1.18300
539.58186	1141.45000	-1.19000
539.84988	1141.80000	-1.19300
540.12389	1142.21000	-1.19600
540.40191	1141.66000	-1.20000
540.66992	1142.04000	-1.20400
540.94194	1141.77000	-1.20800
541.20996	1142.05000	-1.21300
541.48397	1142.31000	-1.21700
541.76399	1142.57000	-1.21900
542.04400	1142.74000	-1.22300
542.32202	1142.05000	-1.22500
542.59003	1142.09000	-1.23100
542.86405	1142.19000	-1.23300
543.14407	1142.33000	-1.23600
543.42208	1141.76000	-1.24200
543.69010	1142.04000	-1.24400
543.96311	1142.17000	-1.24800
544.24213	1141.56000	-1.25400
544.51014	1141.78000	-1.25700
544.78216	1141.93000	-1.25700
545.05918	1141.49000	-1.26300
545.33019	1141.93000	-1.26800
545.60221	1142.00000	-1.27100
545.87822	1141.23000	-1.27300
546.15024	1141.35000	-1.28300
546.42225	1141.57000	-1.28100
546.69927	1140.93000	-1.29000
546.97028	1141.37000	-1.29000
547.24230	1141.78000	-1.29300
547.51832	1141.50000	-1.29700
547.79033	1141.71000	-1.29900
548.06235	1141.83000	-1.30600
548.33836	1141.43000	-1.31100
548.61038	1141.86000	-1.31400
548.88239	1142.05000	-1.31700
549.15841	1141.51000	-1.31700
549.43043	1141.74000	-1.32800
549.70244	1141.76000	-1.32700
549.97846	1140.95000	-1.33200
550.25047	1141.23000	-1.33700
550.52249	1141.52000	-1.34100
550.79850	1141.22000	-1.34000
551.07052	1141.58000	-1.34500
551.34154	1141.14000	-1.35100
551.61055	1141.51000	-1.35000
551.88157	1141.02000	-1.35800
552.15058	1141.43000	-1.36000
552.42160	1140.82000	-1.36500
552.69061	1141.08000	-1.36900
552.96163	1140.67000	-1.36900
553.22964	1141.18000	-1.37300
553.50166	1141.00000	-1.38100
553.76967	1141.54000	-1.38200
554.04169	1141.24000	-1.38500
554.31070	1141.74000	-1.38700
554.58172	1141.47000	-1.39600
554.84973	1142.02000	-1.39700
555.12175	1141.64000	-1.40200
555.39077	1142.03000	-1.40200
555.66178	1141.55000	-1.40600
555.93080	1142.09000	-1.41000
556.20381	1142.25000	-1.41400
556.48383	1142.40000	-1.41700
556.76384	1142.42000	-1.42200
557.04186	1141.56000	-1.42400
557.31088	1141.90000	-1.42900
557.58189	1141.62000	-1.43400
557.85091	1141.93000	-1.43700
558.12292	1142.25000	-1.44400
558.40294	1142.60000	-1.44600
558.68295	1142.97000	-1.44800
558.96297	1143.19000	-1.45100
559.24299	1143.30000	-1.45500
559.52200	1143.33000	-1.45800
559.79902	1142.83000	-1.45900
560.07003	1143.31000	-1.46700
560.34305	1143.66000	-1.46600
560.62307	1143.76000	-1.47300
560.90308	1143.85000	-1.47600
561.18310	1144.15000	-1.48000
561.46311	1144.42000	-1.48600
561.74313	1144.56000	-1.48900
562.02315	1144.80000	-1.48900
562.30316	1145.10000	-1.49300
562.58318	1145.27000	-1.49900
562.86319	1145.17000	-1.50100
563.14321	1145.23000	-1.50600
563.42323	1145.24000	-1.51100
563.70324	1145.47000	-1.51300
563.98326	1145.59000	-1.51700
564.26327	1145.68000	-1.52100
564.54329	1145.87000	-1.52200
564.82331	1146.01000	-1.53100
565.10332	1145.96000	-1.53100
565.38334	1145.92000	-1.53100
565.66335	1145.98000	-1.53800
565.94337	1146.04000	-1.54100
566.22339	1146.14000	-1.54500
566.50340	1146.32000	-1.55000
566.78342	1146.47000	-1.55000
567.06343	1146.70000	-1.55300
567.34345	1146.93000	-1.55500
567.62347	1147.16000	-1.56200
567.90348	1147.28000	-1.56700
568.18150	1146.78000	-1.56900
568.45051	1147.02000	-1.56900
568.72153	1146.43000	-1.57600
568.99054	1146.79000	-1.57700
569.26156	1146.02000	-1.58400
569.52957	1146.38000	-1.58800
569.80159	1145.92000	-1.59000
570.07061	1146.23000	-1.59100
570.34362	1146.46000	-1.59600
570.62164	1146.06000	-1.59800
570.89065	1146.51000	-1.60300
571.16167	1146.04000	-1.60200
571.43068	1146.60000	-1.60800
571.70170	1146.27000	-1.61000
571.96971	1146.84000	-1.61400
572.24273	1147.15000	-1.61500
572.52175	1146.52000	-1.61800
572.78976	1147.04000	-1.62200
573.06178	1146.61000	-1.62800
573.32979	1147.09000	-1.63000
573.60181	1145.89000	-1.63300
573.87082	1129.70000	-1.64300
574.64687	1132.88000	-1.64300
574.92188	1128.46000	-1.65400
575.70693	1132.64000	-1.65600
575.99194	1136.27000	-1.65600
576.25296	1138.92000	-1.66000
576.53298	1140.98000	-1.66500
576.81299	1142.39000	-1.66600
577.09301	1143.54000	-1.67200
577.37302	1144.29000	-1.67300
577.65304	1144.81000	-1.67900
577.93306	1145.34000	-1.67900
578.21307	1145.67000	-1.68200
578.49309	1146.11000	-1.68500
578.77310	1146.44000	-1.68400
579.05312	1146.89000	-1.69100
579.33314	1147.45000	-1.69500
579.61315	1147.94000	-1.69500
579.89317	1147.59000	-1.70200
580.17318	1148.24000	-1.70200
580.45320	1155.55000	-1.70600
580.73322	1155.33000	-1.70800
581.01323	1158.23000	-1.70600
581.29325	1161.49000	-1.71500
581.57326	1150.32000	-1.71500
581.85328	1146.28000	-1.71500
582.13130	1145.49000	-1.72100
582.39131	1144.13000	-1.72000
582.65333	1143.70000	-1.72200
582.93334	1143.37000	-1.72700
583.21136	1142.89000	-1.73000
583.47137	1143.47000	-1.73100
583.73339	1143.74000	-1.73200
584.01340	1146.55000	-1.73500
584.29342	1145.90000	-1.73900
584.57344	1144.99000	-1.74100
584.85345	1144.84000	-1.74300
585.13347	1144.62000	-1.74500
585.41148	1143.48000	-1.75100
585.67350	1144.15000	-1.75100
585.95251	1144.24000	-1.75200
586.23153	1143.82000	-1.75200
586.49255	1143.83000	-1.75800
586.77256	1144.21000	-1.76200
587.05158	1143.69000	-1.76200
587.31159	1143.05000	-1.76700
587.57261	1143.30000	-1.76300
587.85162	1142.82000	-1.76600
588.11264	1143.45000	-1.76600
588.39265	1143.76000	-1.77000
588.67167	1144.05000	-1.77500
588.94769	1143.60000	-1.77400
589.21170	1143.91000	-1.77500
589.48872	1143.34000	-1.77800
589.75173	1143.52000	-1.77800
590.02875	1142.88000	-1.78300
590.29076	1142.62000	-1.78400
590.55178	1142.91000	-1.78400
590.82879	1142.57000	-1.79100
591.09181	1143.15000	-1.78600
591.36782	1142.53000	-1.78800
591.63184	1142.84000	-1.79100
591.90786	1142.14000	-1.79200
592.17087	1141.74000	-1.79400
592.43088	1141.43000	-1.79500
592.69090	1141.37000	-1.79800
592.95091	1141.44000	-1.79800
593.21093	1141.35000	-1.80000
593.47094	1141.34000	-1.80200
593.73096	1141.23000	-1.80100
593.99097	1141.15000	-1.80400
594.25099	1141.15000	-1.80200
594.51100	1141.13000	-1.80400
594.77102	1141.17000	-1.80600
595.03103	1141.08000	-1.81000
595.29105	1140.97000	-1.81100
595.55106	1140.84000	-1.81000
595.81108	1140.76000	-1.81000
596.07109	1140.65000	-1.81000
596.33111	1140.45000	-1.81500
596.59112	1140.30000	-1.81400
596.85114	1140.25000	-1.81100
597.11115	1140.03000	-1.81400
597.37117	1139.81000	-1.81400
597.63118	1139.72000	-1.81400
597.89120	1139.84000	-1.81500
598.15121	1139.85000	-1.81500
598.41123	1139.78000	-1.82000
598.67124	1139.76000	-1.81900
598.93126	1139.69000	-1.81900
599.19127	1139.77000	-1.82100
599.45129	1139.91000	-1.82100
599.71130	1140.04000	-1.81800
599.97132	1140.04000	-1.82100
600.23133	1139.86000	-1.82100
